#, ElapsedTime[ms], Freq[Hz], Duty[%], Pres1[Pa], Pres2[Pa], Pres_diff[Pa]
0,1,1.00,70.00,-1345.74,-1864.56,518.81
1,37,1.00,70.00,-1345.93,-1864.50,518.56
2,42,1.00,70.00,-1346.08,-1864.45,518.37
3,47,1.00,70.00,-1346.20,-1865.39,519.19
4,52,1.00,70.00,-1346.30,-1868.09,521.79
5,57,1.00,70.00,-1346.37,-1867.32,520.95
6,62,1.00,70.00,-1346.43,-1866.71,520.28
7,66,1.00,70.00,-1346.48,-1867.20,520.71
8,72,1.00,70.00,-1346.52,-1866.61,520.09
9,77,1.00,70.00,-1346.55,-1866.14,519.58
10,82,1.00,70.00,-1346.58,-1865.76,519.18
11,89,1.00,70.00,-1346.60,-1866.44,519.84
12,94,1.00,70.00,-1346.62,-1866.00,519.39
13,99,1.00,70.00,-1346.63,-1865.65,519.02
14,104,1.00,70.00,-1346.64,-1867.33,520.69
15,109,1.00,70.00,-1346.65,-1867.69,521.04
16,114,1.00,70.00,-1344.70,-1867.00,522.30
17,119,1.00,70.00,-1345.10,-1866.45,521.36
18,124,1.00,70.00,-1345.41,-1866.02,520.60
19,129,1.00,70.00,-1344.69,-1865.66,520.97
20,134,1.00,70.00,-1344.11,-1865.38,521.27
21,139,1.00,70.00,-1343.65,-1865.16,521.51
22,143,1.00,70.00,-1343.28,-1864.98,521.70
23,151,1.00,70.00,-1342.01,-1864.83,522.83
24,157,1.00,70.00,-1341.96,-1864.72,522.76
25,161,1.00,70.00,-1342.91,-1864.63,521.72
26,166,1.00,70.00,-1343.66,-1864.55,520.89
27,171,1.00,70.00,-1344.27,-1864.49,520.23
28,176,1.00,70.00,-1344.75,-1864.45,519.70
29,181,1.00,70.00,-1344.16,-1865.39,521.23
30,186,1.00,70.00,-1344.66,-1865.16,520.50
31,191,1.00,70.00,-1345.07,-1865.96,520.89
32,195,1.00,70.00,-1344.41,-1865.62,521.20
33,201,1.00,70.00,-1343.89,-1865.34,521.46
34,208,1.00,70.00,-1343.47,-1865.13,521.66
35,213,1.00,70.00,-1344.11,-1864.95,520.84
36,218,1.00,70.00,-1344.63,-1864.81,520.19
37,223,1.00,70.00,-1344.06,-1864.70,520.64
38,228,1.00,70.00,-1343.61,-1864.61,521.01
39,232,1.00,70.00,-1343.25,-1864.54,521.30
40,238,1.00,70.00,-1343.93,-1864.49,520.55
41,243,1.00,70.00,-1344.48,-1864.44,519.96
42,248,1.00,70.00,-1343.94,-1864.40,520.46
43,253,1.00,70.00,-1347.42,-1864.37,516.95
44,258,1.00,70.00,-1347.27,-1863.37,516.10
45,263,1.00,70.00,-1347.15,-1863.55,516.40
46,270,1.00,70.00,-1345.11,-1863.69,518.59
47,275,1.00,70.00,-1345.42,-1863.81,518.38
48,280,1.00,70.00,-1345.67,-1863.90,518.22
49,285,1.00,70.00,-1345.87,-1863.97,518.09
50,290,1.00,70.00,-1344.08,-1864.03,519.94
51,295,1.00,70.00,-1343.63,-1864.07,520.45
52,300,1.00,70.00,-1343.26,-1863.13,519.87
53,305,1.00,70.00,-1341.99,-1863.36,521.37
54,310,1.00,70.00,-1341.95,-1863.54,521.59
55,314,1.00,70.00,-1341.92,-1863.68,521.76
56,319,1.00,70.00,-1341.90,-1863.80,521.90
57,329,1.00,70.00,-1341.88,-1863.89,522.01
58,332,1.00,70.00,-1340.88,-1863.96,523.08
59,337,1.00,70.00,-1342.04,-1864.02,521.98
60,342,1.00,70.00,-1342.97,-1864.07,521.10
61,347,1.00,70.00,-1343.71,-1864.11,520.39
62,352,1.00,70.00,-1342.35,-1864.14,521.78
63,357,1.00,70.00,-1342.24,-1864.16,521.92
64,361,1.00,70.00,-1342.15,-1864.18,522.03
65,366,1.00,70.00,-1343.06,-1865.17,522.11
66,372,1.00,70.00,-1343.78,-1864.99,521.21
67,377,1.00,70.00,-1344.36,-1865.82,521.46
68,382,1.00,70.00,-1344.83,-1866.48,521.66
69,389,1.00,70.00,-1344.22,-1867.02,522.80
70,394,1.00,70.00,-1344.71,-1865.49,520.78
71,399,1.00,70.00,-1345.11,-1866.22,521.11
72,404,1.00,70.00,-1345.42,-1866.80,521.38
73,409,1.00,70.00,-1345.67,-1867.27,521.60
74,414,1.00,70.00,-1345.87,-1866.67,520.79
75,419,1.00,70.00,-1348.96,-1865.21,516.24
76,424,1.00,70.00,-1346.55,-1865.02,518.46
77,429,1.00,70.00,-1346.58,-1866.82,520.24
78,434,1.00,70.00,-1346.60,-1867.28,520.68
79,439,1.00,70.00,-1346.62,-1866.68,520.06
80,443,1.00,70.00,-1346.63,-1866.19,519.57
81,451,1.00,70.00,-1345.66,-1866.78,521.12
82,457,1.00,70.00,-1345.87,-1867.26,521.39
83,462,1.00,70.00,-1346.03,-1866.66,520.63
84,467,1.00,70.00,-1346.16,-1867.15,520.99
85,471,1.00,70.00,-1346.26,-1867.55,521.29
86,476,1.00,70.00,-1346.35,-1866.89,520.55
87,481,1.00,70.00,-1346.41,-1866.37,519.95
88,486,1.00,70.00,-1346.47,-1865.94,519.48
89,491,1.00,70.00,-1345.53,-1866.58,521.05
90,497,1.00,70.00,-1345.76,-1867.09,521.33
91,501,1.00,70.00,-1345.95,-1866.53,520.58
92,509,1.00,70.00,-1346.09,-1866.07,519.98
93,514,1.00,70.00,-1345.23,-1865.71,520.48
94,518,1.00,70.00,-1345.52,-1865.42,519.90
95,523,1.00,70.00,-1345.75,-1865.19,519.43
96,528,1.00,70.00,-1345.94,-1865.98,520.04
97,533,1.00,70.00,-1346.09,-1865.63,519.55
98,538,1.00,70.00,-1346.21,-1865.36,519.15
99,544,1.00,70.00,-1346.30,-1865.14,518.84
100,549,1.00,70.00,-1346.38,-1864.96,518.59
101,553,1.00,70.00,-1345.46,-1864.82,519.36
102,558,1.00,70.00,-1345.70,-1864.71,519.00
103,563,1.00,70.00,-1345.90,-1864.62,518.72
104,570,1.00,70.00,-1345.08,-1864.55,519.47
105,575,1.00,70.00,-1345.40,-1864.49,519.09
106,580,1.00,70.00,-1345.66,-1864.44,518.79
107,586,1.00,70.00,-1345.86,-1864.41,518.55
108,591,1.00,70.00,-1345.05,-1864.38,519.33
109,596,1.00,70.00,-1345.37,-1864.35,518.98
110,600,1.00,70.00,-1345.64,-1864.33,518.70
111,605,1.00,70.00,-1344.87,-1864.32,519.45
112,610,1.00,70.00,-1343.28,-1864.31,521.03
113,615,1.00,70.00,-1343.96,-1864.30,520.34
114,620,1.00,70.00,-1343.53,-1864.29,520.76
115,628,1.00,70.00,-1344.16,-1863.31,519.15
116,633,1.00,70.00,-1343.68,-1863.50,519.81
117,638,1.00,70.00,-1343.31,-1863.65,520.34
118,643,1.00,70.00,-1343.00,-1863.77,520.77
119,647,1.00,70.00,-1343.74,-1863.87,520.13
120,652,1.00,70.00,-1343.35,-1863.95,520.59
121,657,1.00,70.00,-1343.04,-1864.01,520.97
122,662,1.00,70.00,-1342.79,-1864.06,521.27
123,668,1.00,70.00,-1343.57,-1864.10,520.53
124,672,1.00,70.00,-1342.24,-1864.13,521.89
125,678,1.00,70.00,-1342.15,-1864.16,522.01
126,682,1.00,70.00,-1342.08,-1864.18,522.10
127,690,1.00,70.00,-1343.00,-1865.17,522.17
128,695,1.00,70.00,-1343.74,-1864.99,521.25
129,699,1.00,70.00,-1343.35,-1864.84,521.49
130,704,1.00,70.00,-1343.04,-1864.72,521.69
131,710,1.00,70.00,-1342.79,-1864.63,521.84
132,715,1.00,70.00,-1343.57,-1864.56,520.99
133,720,1.00,70.00,-1344.19,-1864.50,520.31
134,725,1.00,70.00,-1344.69,-1865.43,520.74
135,730,1.00,70.00,-1345.09,-1865.19,520.11
136,734,1.00,70.00,-1345.41,-1865.01,519.60
137,739,1.00,70.00,-1347.61,-1864.86,517.24
138,747,1.00,70.00,-1347.43,-1864.74,517.31
139,753,1.00,70.00,-1347.28,-1864.64,517.36
140,758,1.00,70.00,-1348.13,-1863.59,515.45
141,762,1.00,70.00,-1347.84,-1863.72,515.88
142,767,1.00,70.00,-1347.61,-1864.81,517.19
143,772,1.00,70.00,-1347.42,-1865.67,518.25
144,777,1.00,70.00,-1347.28,-1865.39,518.11
145,781,1.00,70.00,-1347.16,-1865.16,518.01
146,787,1.00,70.00,-1347.06,-1865.96,518.90
147,791,1.00,70.00,-1346.98,-1866.60,519.61
148,797,1.00,70.00,-1346.92,-1866.13,519.20
149,805,1.00,70.00,-1346.88,-1865.75,518.88
150,809,1.00,70.00,-1346.84,-1865.45,518.62
151,814,1.00,70.00,-1346.80,-1865.22,518.41
152,819,1.00,70.00,-1346.78,-1865.02,518.24
153,824,1.00,70.00,-1346.76,-1865.85,519.09
154,829,1.00,70.00,-1346.74,-1866.51,519.76
155,834,1.00,70.00,-1346.73,-1866.06,519.33
156,839,1.00,70.00,-1346.72,-1865.70,518.98
157,844,1.00,70.00,-1346.71,-1865.41,518.70
158,849,1.00,70.00,-1346.71,-1864.20,517.50
159,854,1.00,70.00,-1345.72,-1864.21,518.49
160,859,1.00,70.00,-1345.92,-1864.22,518.31
161,866,1.00,70.00,-1346.07,-1864.23,518.16
162,871,1.00,70.00,-1346.19,-1864.24,518.04
163,876,1.00,70.00,-1346.29,-1864.24,517.95
164,881,1.00,70.00,-1346.37,-1864.24,517.88
165,887,1.00,70.00,-1346.43,-1864.25,517.82
166,891,1.00,70.00,-1345.50,-1863.27,517.77
167,896,1.00,70.00,-1345.74,-1863.47,517.73
168,901,1.00,70.00,-1345.93,-1863.63,517.70
169,906,1.00,70.00,-1346.08,-1863.75,517.68
170,910,1.00,70.00,-1345.22,-1863.85,518.63
171,915,1.00,70.00,-1344.54,-1863.93,519.40
172,924,1.00,70.00,-1343.99,-1864.00,520.01
173,928,1.00,70.00,-1344.53,-1864.05,519.52
174,933,1.00,70.00,-1344.96,-1864.09,519.14
175,938,1.00,70.00,-1345.30,-1864.13,518.82
176,943,1.00,70.00,-1345.58,-1864.15,518.57
177,948,1.00,70.00,-1344.82,-1864.17,519.35
178,953,1.00,70.00,-1344.22,-1866.14,521.93
179,957,1.00,70.00,-1344.71,-1865.77,521.06
180,962,1.00,70.00,-1343.15,-1864.49,521.34
181,968,1.00,70.00,-1342.88,-1864.44,521.56
182,973,1.00,70.00,-1341.69,-1864.41,522.72
183,978,1.00,70.00,-1341.71,-1864.38,522.67
184,985,1.00,70.00,-1340.75,-1864.35,523.60
185,990,1.00,70.00,-1341.94,-1864.33,522.40
186,995,1.00,70.00,-1341.91,-1864.32,522.41
187,1000,1.00,70.00,-1339.93,-1864.31,524.37
188,1005,1.00,70.00,-1340.31,-1864.30,523.99
189,1010,1.00,70.00,-1340.60,-1864.29,523.68
190,1015,1.00,70.00,-1339.87,-1864.28,524.42
191,1020,1.00,70.00,-1341.23,-1864.28,523.05
192,1057,1.00,70.00,-1341.34,-1864.27,522.93
193,1062,1.00,70.00,-1341.43,-1864.27,522.84
194,1067,1.00,70.00,-1340.53,-1864.27,523.74
195,1074,1.00,70.00,-1339.81,-1864.27,524.46
196,1079,1.00,70.00,-1340.20,-1864.26,524.06
197,1084,1.00,70.00,-1341.50,-1864.26,522.76
198,1089,1.00,70.00,-1342.54,-1865.24,522.70
199,1095,1.00,70.00,-1343.36,-1866.02,522.65
200,1100,1.00,70.00,-1344.03,-1865.67,521.64
201,1104,1.00,70.00,-1348.46,-1865.39,516.92
202,1109,1.00,70.00,-1348.11,-1866.14,518.03
203,1114,1.00,70.00,-1347.82,-1865.76,517.94
204,1119,1.00,70.00,-1347.59,-1865.46,517.87
205,1124,1.00,70.00,-1347.41,-1866.20,518.79
206,1131,1.00,70.00,-1347.26,-1866.79,519.52
207,1137,1.00,70.00,-1347.15,-1866.28,519.13
208,1142,1.00,70.00,-1347.05,-1865.88,518.82
209,1147,1.00,70.00,-1344.05,-1867.51,523.46
210,1152,1.00,70.00,-1344.58,-1867.83,523.26
211,1156,1.00,70.00,-1345.00,-1867.12,522.12
212,1161,1.00,70.00,-1345.33,-1866.55,521.21
213,1166,1.00,70.00,-1345.60,-1867.06,521.46
214,1171,1.00,70.00,-1345.82,-1867.48,521.66
215,1176,1.00,70.00,-1345.99,-1867.81,521.82
216,1182,1.00,70.00,-1346.13,-1867.10,520.97
217,1189,1.00,70.00,-1346.24,-1867.51,521.27
218,1194,1.00,70.00,-1346.33,-1867.84,521.51
219,1199,1.00,70.00,-1346.40,-1869.07,522.68
220,1203,1.00,70.00,-1350.36,-1869.09,518.73
221,1208,1.00,70.00,-1349.62,-1869.10,519.47
222,1213,1.00,70.00,-1349.04,-1868.13,519.09
223,1218,1.00,70.00,-1348.56,-1867.36,518.79
224,1224,1.00,70.00,-1348.19,-1867.71,519.53
225,1229,1.00,70.00,-1347.89,-1868.00,520.11
226,1234,1.00,70.00,-1347.64,-1868.23,520.58
227,1238,1.00,70.00,-1347.45,-1867.43,519.98
228,1246,1.00,70.00,-1347.30,-1867.77,520.48
229,1251,1.00,70.00,-1346.20,-1867.07,520.87
230,1255,1.00,70.00,-1345.32,-1867.48,522.17
231,1260,1.00,70.00,-1345.59,-1866.84,521.25
232,1266,1.00,70.00,-1345.81,-1867.30,521.49
233,1271,1.00,70.00,-1345.98,-1866.69,520.71
234,1276,1.00,70.00,-1346.12,-1867.18,521.06
235,1281,1.00,70.00,-1345.26,-1865.62,520.36
236,1285,1.00,70.00,-1345.54,-1866.32,520.78
237,1290,1.00,70.00,-1345.77,-1866.89,521.12
238,1295,1.00,70.00,-1345.95,-1867.34,521.39
239,1302,1.00,70.00,-1345.12,-1868.68,523.55
240,1308,1.00,70.00,-1345.43,-1868.77,523.34
241,1313,1.00,70.00,-1345.68,-1867.87,522.18
242,1318,1.00,70.00,-1345.88,-1865.19,519.31
243,1323,1.00,70.00,-1345.06,-1865.00,519.94
244,1328,1.00,70.00,-1344.41,-1864.86,520.44
245,1332,1.00,70.00,-1343.89,-1864.74,520.85
246,1337,1.00,70.00,-1344.45,-1864.64,520.19
247,1342,1.00,70.00,-1344.89,-1864.56,519.67
248,1347,1.00,70.00,-1345.25,-1864.50,519.25
249,1353,1.00,70.00,-1342.61,-1863.48,520.87
250,1361,1.00,70.00,-1343.42,-1862.66,519.24
251,1365,1.00,70.00,-1342.12,-1862.98,520.86
252,1370,1.00,70.00,-1342.06,-1863.23,521.18
253,1375,1.00,70.00,-1342.98,-1862.46,519.48
254,1379,1.00,70.00,-1342.74,-1862.82,520.08
255,1384,1.00,70.00,-1342.55,-1863.11,520.55
256,1389,1.00,70.00,-1342.40,-1863.34,520.94
257,1395,1.00,70.00,-1342.28,-1863.52,521.24
258,1400,1.00,70.00,-1341.21,-1863.67,522.46
259,1405,1.00,70.00,-1341.33,-1863.79,522.46
260,1410,1.00,70.00,-1341.42,-1863.88,522.46
261,1414,1.00,70.00,-1342.47,-1863.96,521.48
262,1422,1.00,70.00,-1342.34,-1864.02,521.68
263,1426,1.00,70.00,-1342.23,-1864.07,521.84
264,1431,1.00,70.00,-1345.07,-1864.10,519.03
265,1437,1.00,70.00,-1344.42,-1864.13,519.72
266,1442,1.00,70.00,-1344.87,-1864.16,519.29
267,1447,1.00,70.00,-1345.23,-1865.16,519.92
268,1452,1.00,70.00,-1345.52,-1864.98,519.45
269,1457,1.00,70.00,-1346.73,-1865.81,519.08
270,1461,1.00,70.00,-1346.72,-1865.50,518.78
271,1466,1.00,70.00,-1346.71,-1866.23,519.52
272,1471,1.00,70.00,-1346.71,-1865.83,519.13
273,1480,1.00,70.00,-1346.70,-1865.52,518.82
274,1484,1.00,70.00,-1347.67,-1866.24,518.57
275,1489,1.00,70.00,-1347.47,-1865.85,518.37
276,1494,1.00,70.00,-1347.32,-1865.53,518.21
277,1499,1.00,70.00,-1347.19,-1866.25,519.06
278,1504,1.00,70.00,-1347.09,-1865.85,518.77
279,1509,1.00,70.00,-1347.01,-1867.49,520.48
280,1513,1.00,70.00,-1346.94,-1866.84,519.90
281,1518,1.00,70.00,-1346.89,-1865.35,518.46
282,1524,1.00,70.00,-1346.85,-1866.11,519.26
283,1529,1.00,70.00,-1346.81,-1862.81,515.99
284,1566,1.00,70.00,-1345.81,-1863.10,517.29
285,1571,1.00,70.00,-1345.98,-1862.35,516.37
286,1576,1.00,70.00,-1346.12,-1862.73,516.61
287,1580,1.00,70.00,-1346.23,-1863.04,516.80
288,1586,1.00,70.00,-1349.25,-1864.26,515.01
289,1590,1.00,70.00,-1352.64,-1865.24,512.59
290,1595,1.00,70.00,-1351.45,-1865.04,513.59
291,1600,1.00,70.00,-1350.50,-1864.88,514.39
292,1606,1.00,70.00,-1349.73,-1864.76,515.02
293,1611,1.00,70.00,-1349.12,-1864.66,515.54
294,1615,1.00,70.00,-1348.63,-1864.58,515.94
295,1623,1.00,70.00,-1347.27,-1864.51,517.25
296,1628,1.00,70.00,-1346.17,-1864.46,518.29
297,1632,1.00,70.00,-1345.30,-1864.42,519.12
298,1637,1.00,70.00,-1344.60,-1864.39,519.79
299,1642,1.00,70.00,-1344.04,-1864.36,520.33
300,1647,1.00,70.00,-1344.57,-1865.32,520.75
301,1653,1.00,70.00,-1344.99,-1865.11,520.12
302,1658,1.00,70.00,-1345.33,-1864.94,519.61
303,1662,1.00,70.00,-1345.60,-1866.75,521.16
304,1668,1.00,70.00,-1345.81,-1869.18,523.37
305,1672,1.00,70.00,-1345.99,-1868.20,522.21
306,1680,1.00,70.00,-1346.13,-1867.41,521.29
307,1685,1.00,70.00,-1344.28,-1866.78,522.50
308,1689,1.00,70.00,-1342.81,-1865.30,522.49
309,1695,1.00,70.00,-1342.61,-1864.11,521.51
310,1700,1.00,70.00,-1342.45,-1863.17,520.72
311,1705,1.00,70.00,-1341.34,-1863.38,522.05
312,1710,1.00,70.00,-1340.45,-1862.58,522.13
313,1715,1.00,70.00,-1340.72,-1862.92,522.20
314,1719,1.00,70.00,-1340.94,-1862.21,521.27
315,1724,1.00,70.00,-1341.11,-1862.62,521.51
316,1729,1.00,70.00,-1340.27,-1861.97,521.70
317,1737,1.00,70.00,-1340.58,-1861.45,520.88
318,1742,1.00,70.00,-1341.80,-1861.04,519.24
319,1747,1.00,70.00,-1342.77,-1861.68,518.91
320,1752,1.00,70.00,-1342.58,-1861.22,518.64
321,1757,1.00,70.00,-1343.40,-1860.85,517.45
322,1762,1.00,70.00,-1343.08,-1860.56,517.48
323,1767,1.00,70.00,-1341.85,-1861.30,519.45
324,1771,1.00,70.00,-1340.86,-1860.91,520.05
325,1777,1.00,70.00,-1341.05,-1860.60,519.56
326,1782,1.00,70.00,-1341.20,-1860.36,519.16
327,1787,1.00,70.00,-1342.29,-1862.11,519.82
328,1795,1.00,70.00,-1342.19,-1862.54,520.35
329,1799,1.00,70.00,-1342.11,-1862.89,520.77
330,1804,1.00,70.00,-1343.03,-1863.16,520.13
331,1809,1.00,70.00,-1343.76,-1863.38,519.62
332,1814,1.00,70.00,-1344.34,-1864.53,520.19
333,1820,1.00,70.00,-1344.81,-1864.48,519.67
334,1824,1.00,70.00,-1345.18,-1865.41,520.23
335,1829,1.00,70.00,-1345.48,-1865.18,519.70
336,1834,1.00,70.00,-1345.72,-1865.97,520.25
337,1839,1.00,70.00,-1345.91,-1865.63,519.72
338,1844,1.00,70.00,-1346.07,-1866.33,520.26
339,1853,1.00,70.00,-1346.19,-1866.89,520.70
340,1856,1.00,70.00,-1344.33,-1866.37,522.03
341,1862,1.00,70.00,-1339.92,-1865.94,526.02
342,1867,1.00,70.00,-1341.27,-1866.58,525.31
343,1872,1.00,70.00,-1342.35,-1866.12,523.76
344,1877,1.00,70.00,-1343.22,-1865.75,522.53
345,1882,1.00,70.00,-1343.91,-1865.45,521.54
346,1886,1.00,70.00,-1344.46,-1866.19,521.72
347,1891,1.00,70.00,-1344.91,-1865.80,520.89
348,1896,1.00,70.00,-1345.26,-1865.49,520.23
349,1901,1.00,70.00,-1345.55,-1865.25,519.70
350,1907,1.00,70.00,-1345.77,-1867.98,522.21
351,1914,1.00,70.00,-1345.95,-1867.23,521.28
352,1919,1.00,70.00,-1350.01,-1866.64,516.63
353,1924,1.00,70.00,-1349.34,-1866.16,516.82
354,1929,1.00,70.00,-1348.81,-1865.78,516.97
355,1933,1.00,70.00,-1348.38,-1865.48,517.09
356,1938,1.00,70.00,-1348.04,-1865.23,517.19
357,1943,1.00,70.00,-1347.77,-1865.04,517.27
358,1949,1.00,70.00,-1347.55,-1865.86,518.31
359,1954,1.00,70.00,-1347.38,-1866.52,519.14
360,1959,1.00,70.00,-1347.24,-1866.06,518.83
361,1963,1.00,70.00,-1347.13,-1866.68,519.55
362,1971,1.00,70.00,-1347.04,-1866.19,519.16
363,1976,1.00,70.00,-1346.97,-1867.76,520.80
364,1981,1.00,70.00,-1346.91,-1868.04,521.13
365,1986,1.00,70.00,-1346.86,-1868.26,521.39
366,1991,1.00,70.00,-1346.83,-1868.43,521.61
367,1996,1.00,70.00,-1346.80,-1867.60,520.80
368,2001,1.00,70.00,-1346.77,-1866.93,520.16
369,2006,1.00,70.00,-1346.75,-1867.37,520.62
370,2011,1.00,70.00,-1349.67,-1867.73,518.06
371,2016,1.00,70.00,-1349.07,-1867.03,517.96
372,2021,1.00,70.00,-1348.59,-1866.48,517.88
373,2028,1.00,70.00,-1348.21,-1867.01,518.80
374,2033,1.00,70.00,-1345.95,-1871.34,525.39
375,2038,1.00,70.00,-1346.10,-1869.93,523.83
376,2043,1.00,70.00,-1346.21,-1868.79,522.58
377,2048,1.00,70.00,-1346.31,-1867.89,521.58
378,2053,1.00,70.00,-1346.38,-1867.16,520.78
379,2058,1.00,70.00,-1346.44,-1866.58,520.14
380,2062,1.00,70.00,-1346.49,-1866.12,519.63
381,2067,1.00,70.00,-1346.53,-1865.74,519.22
382,2072,1.00,70.00,-1346.56,-1865.45,518.89
383,2109,1.00,70.00,-1346.58,-1868.14,521.56
384,2116,1.00,70.00,-1346.60,-1867.36,520.76
385,2122,1.00,70.00,-1346.62,-1866.74,520.12
386,2127,1.00,70.00,-1346.63,-1866.24,519.62
387,2132,1.00,70.00,-1346.64,-1865.85,519.21
388,2137,1.00,70.00,-1346.65,-1865.53,518.88
389,2141,1.00,70.00,-1351.54,-1865.28,513.74
390,2146,1.00,70.00,-1350.57,-1865.07,514.51
391,2151,1.00,70.00,-1349.79,-1863.93,514.14
392,2156,1.00,70.00,-1349.17,-1864.00,514.83
393,2162,1.00,70.00,-1345.74,-1864.05,518.31
394,2167,1.00,70.00,-1345.93,-1865.07,519.14
395,2174,1.00,70.00,-1345.10,-1864.91,519.80
396,2179,1.00,70.00,-1345.42,-1864.78,519.36
397,2184,1.00,70.00,-1346.65,-1863.70,517.05
398,2189,1.00,70.00,-1346.65,-1864.79,518.13
399,2193,1.00,70.00,-1350.56,-1864.68,514.11
400,2198,1.00,70.00,-1349.79,-1864.60,514.81
401,2204,1.00,70.00,-1349.17,-1864.53,515.36
402,2209,1.00,70.00,-1348.67,-1865.45,516.78
403,2214,1.00,70.00,-1348.27,-1866.19,517.92
404,2219,1.00,70.00,-1347.95,-1865.80,517.85
405,2223,1.00,70.00,-1347.70,-1865.49,517.80
406,2231,1.00,70.00,-1344.56,-1865.25,520.68
407,2236,1.00,70.00,-1344.99,-1865.05,520.06
408,2240,1.00,70.00,-1345.33,-1864.89,519.56
409,2246,1.00,70.00,-1345.60,-1865.74,520.14
410,2251,1.00,70.00,-1345.81,-1865.44,519.63
411,2256,1.00,70.00,-1345.99,-1865.21,519.22
412,2261,1.00,70.00,-1345.15,-1865.02,519.87
413,2266,1.00,70.00,-1345.45,-1864.87,519.41
414,2271,1.00,70.00,-1344.72,-1864.74,520.02
415,2275,1.00,70.00,-1345.11,-1864.65,519.53
416,2280,1.00,70.00,-1345.43,-1863.59,518.16
417,2289,1.00,70.00,-1344.70,-1864.70,520.00
418,2294,1.00,70.00,-1345.10,-1866.57,521.47
419,2299,1.00,70.00,-1345.41,-1866.10,520.69
420,2303,1.00,70.00,-1345.67,-1865.74,520.07
421,2308,1.00,70.00,-1345.87,-1866.42,520.55
422,2313,1.00,70.00,-1346.03,-1866.96,520.93
423,2318,1.00,70.00,-1346.16,-1866.42,520.26
424,2323,1.00,70.00,-1346.27,-1866.96,520.70
425,2328,1.00,70.00,-1346.35,-1867.40,521.05
426,2333,1.00,70.00,-1346.41,-1867.75,521.33
427,2338,1.00,70.00,-1345.49,-1867.05,521.56
428,2343,1.00,70.00,-1345.73,-1867.47,521.74
429,2351,1.00,70.00,-1345.92,-1866.83,520.91
430,2355,1.00,70.00,-1346.07,-1866.31,520.24
431,2360,1.00,70.00,-1346.19,-1865.90,519.71
432,2365,1.00,70.00,-1346.29,-1866.55,520.26
433,2370,1.00,70.00,-1346.37,-1866.09,519.72
434,2376,1.00,70.00,-1346.43,-1866.70,520.27
435,2381,1.00,70.00,-1346.48,-1866.21,519.73
436,2385,1.00,70.00,-1346.52,-1866.80,520.28
437,2390,1.00,70.00,-1346.55,-1867.27,520.71
438,2395,1.00,70.00,-1346.58,-1866.66,520.09
439,2400,1.00,70.00,-1346.60,-1866.18,519.59
440,2407,1.00,70.00,-1344.66,-1865.80,521.14
441,2412,1.00,70.00,-1345.06,-1865.49,520.43
442,2418,1.00,70.00,-1344.41,-1865.24,520.83
443,2423,1.00,70.00,-1343.89,-1865.05,521.16
444,2428,1.00,70.00,-1343.47,-1864.89,521.42
445,2432,1.00,70.00,-1343.14,-1864.76,521.63
446,2437,1.00,70.00,-1342.87,-1863.69,520.82
447,2442,1.00,70.00,-1342.65,-1863.80,521.15
448,2447,1.00,70.00,-1342.48,-1863.89,521.41
