#, ElapsedTime[ms], Freq[Hz], Duty[%], Pres1[Pa], Pres2[Pa], Pres_diff[Pa]
0,1,0.50,70.00,1410.53,715.77,694.76
1,34,0.50,70.00,1410.84,715.39,695.46
2,39,0.50,70.00,1409.14,715.08,694.06
3,44,0.50,70.00,1408.76,715.82,692.94
4,49,0.50,70.00,1408.45,715.43,693.03
5,54,0.50,70.00,1408.21,715.12,693.09
6,60,0.50,70.00,1408.99,714.87,694.12
7,64,0.50,70.00,1408.64,714.67,693.97
8,69,0.50,70.00,1409.33,714.51,694.82
9,74,0.50,70.00,1408.91,714.38,694.53
10,79,0.50,70.00,1409.55,714.28,695.27
11,84,0.50,70.00,1410.06,714.19,695.87
12,90,0.50,70.00,1410.47,714.13,696.34
13,96,0.50,70.00,1408.85,716.03,692.82
14,101,0.50,70.00,1408.52,715.60,692.92
15,106,0.50,70.00,1409.24,715.25,693.99
16,111,0.50,70.00,1408.84,714.97,693.86
17,116,0.50,70.00,1409.49,714.75,694.74
18,120,0.50,70.00,1409.04,714.58,694.46
19,125,0.50,70.00,1409.65,714.43,695.22
20,130,0.50,70.00,1410.14,715.30,694.85
21,135,0.50,70.00,1410.54,714.03,696.50
22,141,0.50,70.00,1408.90,714.00,694.90
23,146,0.50,70.00,1408.56,713.97,694.59
24,152,0.50,70.00,1409.27,713.95,695.32
25,157,0.50,70.00,1409.84,713.94,695.90
26,162,0.50,70.00,1409.32,716.85,692.47
27,167,0.50,70.00,1408.90,716.25,692.64
28,172,0.50,70.00,1408.56,714.80,693.76
29,177,0.50,70.00,1409.27,714.61,694.66
30,182,0.50,70.00,1408.86,714.46,694.40
31,187,0.50,70.00,1409.51,714.34,695.17
32,192,0.50,70.00,1410.03,714.25,695.78
33,197,0.50,70.00,1410.45,714.17,696.28
34,202,0.50,70.00,1410.78,714.11,696.67
35,206,0.50,70.00,1411.05,714.06,696.98
36,211,0.50,70.00,1411.26,714.02,697.24
37,218,0.50,70.00,1411.43,713.99,697.44
38,224,0.50,70.00,1409.61,713.97,695.64
39,229,0.50,70.00,1410.11,713.95,696.16
40,233,0.50,70.00,1410.51,714.91,695.60
41,238,0.50,70.00,1409.85,714.70,695.15
42,243,0.50,70.00,1410.31,714.53,695.77
43,248,0.50,70.00,1410.67,714.40,696.27
44,253,0.50,70.00,1410.95,714.29,696.66
45,258,0.50,70.00,1411.19,714.21,696.98
46,262,0.50,70.00,1411.37,714.14,697.23
47,268,0.50,70.00,1411.52,714.09,697.43
48,273,0.50,70.00,1410.66,714.04,696.62
49,280,0.50,70.00,1410.95,714.01,696.94
50,285,0.50,70.00,1411.18,713.98,697.20
51,290,0.50,70.00,1411.37,713.96,697.41
52,294,0.50,70.00,1411.52,713.94,697.58
53,299,0.50,70.00,1413.59,713.92,699.66
54,304,0.50,70.00,1413.29,713.91,699.38
55,310,0.50,70.00,1413.06,713.90,699.15
56,315,0.50,70.00,1412.87,716.83,696.04
57,319,0.50,70.00,1412.71,716.23,696.48
58,324,0.50,70.00,1412.59,715.76,696.83
59,329,0.50,70.00,1411.52,715.38,696.14
60,334,0.50,70.00,1410.66,715.08,695.58
61,339,0.50,70.00,1409.97,714.84,695.14
62,346,0.50,70.00,1410.40,714.64,695.76
63,351,0.50,70.00,1410.74,714.49,696.26
64,356,0.50,70.00,1410.04,716.32,693.72
65,361,0.50,70.00,1410.45,715.83,694.63
66,366,0.50,70.00,1409.81,715.43,694.37
67,371,0.50,70.00,1409.29,715.12,694.17
68,376,0.50,70.00,1409.86,714.87,694.99
69,381,0.50,70.00,1410.31,714.67,695.64
70,385,0.50,70.00,1410.67,714.51,696.16
71,390,0.50,70.00,1410.96,714.38,696.57
72,396,0.50,70.00,1411.19,714.28,696.91
73,401,0.50,70.00,1410.39,714.20,696.20
74,408,0.50,70.00,1410.74,714.13,696.61
75,413,0.50,70.00,1409.06,714.08,694.98
76,418,0.50,70.00,1409.67,714.04,695.63
77,422,0.50,70.00,1410.16,714.00,696.16
78,427,0.50,70.00,1410.55,713.97,696.57
79,432,0.50,70.00,1410.86,713.95,696.91
80,438,0.50,70.00,1415.02,713.94,701.08
81,443,0.50,70.00,1414.43,713.92,700.51
82,447,0.50,70.00,1413.97,713.91,700.06
83,452,0.50,70.00,1413.60,713.90,699.70
84,457,0.50,70.00,1413.30,713.90,699.40
85,462,0.50,70.00,1413.06,713.89,699.17
86,467,0.50,70.00,1412.87,713.89,698.99
87,474,0.50,70.00,1412.72,713.88,698.84
88,480,0.50,70.00,1412.60,713.88,698.72
89,484,0.50,70.00,1411.52,713.88,697.65
90,489,0.50,70.00,1410.66,713.87,696.79
91,494,0.50,70.00,1412.91,713.87,699.03
92,499,0.50,70.00,1412.75,713.87,698.88
93,504,0.50,70.00,1412.62,713.87,698.75
94,508,0.50,70.00,1412.52,715.82,696.69
95,513,0.50,70.00,1412.44,715.43,697.00
96,518,0.50,70.00,1412.37,715.12,697.25
97,524,0.50,70.00,1412.32,714.87,697.45
98,529,0.50,70.00,1412.28,715.64,696.63
99,536,0.50,70.00,1413.22,713.34,699.88
100,540,0.50,70.00,1413.00,713.44,699.56
101,545,0.50,70.00,1412.82,713.53,699.29
102,550,0.50,70.00,1412.68,713.60,699.08
103,555,0.50,70.00,1412.56,713.65,698.91
104,560,0.50,70.00,1412.47,713.69,698.78
105,566,0.50,70.00,1412.40,713.73,698.67
106,571,0.50,70.00,1412.34,711.80,700.54
107,575,0.50,70.00,1413.27,712.22,701.06
108,580,0.50,70.00,1413.04,712.55,700.49
109,585,0.50,70.00,1412.85,712.81,700.04
110,590,0.50,70.00,1412.70,715.95,696.75
111,597,0.50,70.00,1412.59,715.53,697.05
112,602,0.50,70.00,1412.49,715.20,697.29
113,608,0.50,70.00,1412.41,714.93,697.48
114,612,0.50,70.00,1412.35,714.72,697.63
115,617,0.50,70.00,1412.30,714.55,697.75
116,622,0.50,70.00,1412.27,714.41,697.85
117,627,0.50,70.00,1412.23,714.30,697.93
118,632,0.50,70.00,1412.21,714.22,697.99
119,637,0.50,70.00,1412.19,714.15,698.04
120,641,0.50,70.00,1412.17,714.09,698.08
121,646,0.50,70.00,1412.16,714.05,698.11
122,652,0.50,70.00,1412.15,714.01,698.14
123,660,0.50,70.00,1412.14,713.98,698.16
124,664,0.50,70.00,1412.14,713.96,698.18
125,669,0.50,70.00,1411.15,713.94,697.21
126,674,0.50,70.00,1411.34,713.93,697.42
127,678,0.50,70.00,1411.50,713.91,697.58
128,683,0.50,70.00,1411.62,716.83,694.79
129,688,0.50,70.00,1410.74,716.24,694.50
130,694,0.50,70.00,1411.02,715.77,695.25
131,699,0.50,70.00,1410.26,715.39,694.87
132,704,0.50,70.00,1409.65,715.08,694.57
133,708,0.50,70.00,1410.14,714.84,695.30
134,713,0.50,70.00,1410.54,713.67,696.87
135,718,0.50,70.00,1410.85,713.71,697.14
136,725,0.50,70.00,1411.10,713.74,697.36
137,730,0.50,70.00,1411.30,713.77,697.54
138,736,0.50,70.00,1410.49,716.72,693.77
139,740,0.50,70.00,1408.86,716.15,692.71
140,745,0.50,70.00,1407.56,715.69,691.87
141,750,0.50,70.00,1407.49,715.33,692.17
142,755,0.50,70.00,1408.41,715.03,693.38
143,760,0.50,70.00,1409.15,714.80,694.35
144,765,0.50,70.00,1409.74,714.61,695.13
145,770,0.50,70.00,1410.22,714.46,695.75
146,774,0.50,70.00,1410.60,714.34,696.25
147,780,0.50,70.00,1409.92,714.25,695.67
148,787,0.50,70.00,1410.36,714.17,696.19
149,792,0.50,70.00,1410.71,714.11,696.60
150,797,0.50,70.00,1410.99,714.06,696.93
151,802,0.50,70.00,1409.26,714.02,695.24
152,806,0.50,70.00,1408.85,713.99,694.86
153,811,0.50,70.00,1409.50,713.97,695.54
154,816,0.50,70.00,1410.03,713.95,696.08
155,822,0.50,70.00,1415.33,712.95,702.37
156,827,0.50,70.00,1412.73,716.07,696.66
157,832,0.50,70.00,1410.65,714.65,696.00
158,837,0.50,70.00,1409.97,714.49,695.47
159,841,0.50,70.00,1409.42,714.37,695.05
160,848,0.50,70.00,1408.98,714.27,694.71
161,853,0.50,70.00,1408.63,714.19,694.44
162,858,0.50,70.00,1407.37,714.12,693.25
163,864,0.50,70.00,1406.37,714.07,692.29
164,868,0.50,70.00,1405.56,714.03,691.53
165,873,0.50,70.00,1405.90,713.02,692.87
166,878,0.50,70.00,1406.16,713.19,692.97
167,883,0.50,70.00,1407.35,713.33,694.02
168,888,0.50,70.00,1408.30,713.43,694.87
169,893,0.50,70.00,1409.06,713.52,695.54
170,897,0.50,70.00,1408.70,714.57,694.13
171,902,0.50,70.00,1409.38,718.33,691.05
172,910,0.50,70.00,1410.90,717.44,693.46
173,915,0.50,70.00,1410.17,716.73,693.44
174,920,0.50,70.00,1410.56,716.15,694.40
175,925,0.50,70.00,1410.87,716.67,694.19
176,930,0.50,70.00,1411.11,717.09,694.03
177,934,0.50,70.00,1412.29,716.44,695.85
178,939,0.50,70.00,1412.25,716.91,695.35
179,944,0.50,70.00,1412.23,716.30,695.93
180,950,0.50,70.00,1412.20,715.81,696.39
181,955,0.50,70.00,1412.18,715.42,696.76
182,959,0.50,70.00,1412.17,716.09,696.08
183,964,0.50,70.00,1412.16,716.62,695.54
184,973,0.50,70.00,1412.15,716.07,696.08
185,976,0.50,70.00,1414.09,715.63,698.46
186,981,0.50,70.00,1413.70,715.28,698.42
187,986,0.50,70.00,1413.38,715.97,697.41
188,992,0.50,70.00,1413.12,715.55,697.57
189,996,0.50,70.00,1412.92,715.21,697.71
190,1001,0.50,70.00,1412.76,714.94,697.81
191,1006,0.50,70.00,1412.63,715.71,696.92
192,1011,0.50,70.00,1412.53,715.34,697.19
193,1016,0.50,70.00,1412.44,715.04,697.40
194,1021,0.50,70.00,1412.38,714.81,697.57
195,1054,0.50,70.00,1412.32,714.62,697.70
196,1063,0.50,70.00,1413.26,714.47,698.79
197,1066,0.50,70.00,1413.03,714.35,698.68
198,1071,0.50,70.00,1410.89,714.25,696.64
199,1077,0.50,70.00,1411.13,714.18,696.96
200,1081,0.50,70.00,1411.33,714.11,697.22
201,1086,0.50,70.00,1410.51,715.04,695.47
202,1091,0.50,70.00,1411.81,714.81,697.00
203,1096,0.50,70.00,1410.89,714.62,696.27
204,1101,0.50,70.00,1409.18,714.47,694.71
205,1106,0.50,70.00,1408.79,714.35,694.44
206,1110,0.50,70.00,1407.50,714.25,693.25
207,1115,0.50,70.00,1408.42,714.17,694.25
208,1123,0.50,70.00,1409.16,714.11,695.05
209,1128,0.50,70.00,1407.80,714.06,693.73
210,1133,0.50,70.00,1407.68,714.02,693.66
211,1137,0.50,70.00,1408.57,713.99,694.57
212,1142,0.50,70.00,1409.28,713.97,695.31
213,1147,0.50,70.00,1409.84,713.95,695.90
214,1152,0.50,70.00,1410.30,711.98,698.32
215,1157,0.50,70.00,1410.66,712.36,698.30
216,1163,0.50,70.00,1409.97,712.66,697.31
217,1167,0.50,70.00,1410.40,712.90,697.50
218,1172,0.50,70.00,1410.74,716.02,694.72
219,1177,0.50,70.00,1411.02,715.59,695.42
220,1184,0.50,70.00,1409.28,715.25,694.03
221,1189,0.50,70.00,1409.85,714.97,694.88
222,1194,0.50,70.00,1410.30,714.75,695.55
223,1198,0.50,70.00,1410.66,714.57,696.09
224,1204,0.50,70.00,1409.97,714.43,695.54
225,1209,0.50,70.00,1408.45,714.32,694.13
226,1214,0.50,70.00,1408.20,714.23,693.98
227,1219,0.50,70.00,1408.01,712.20,695.81
228,1224,0.50,70.00,1407.85,714.49,693.36
229,1228,0.50,70.00,1408.70,714.36,694.34
230,1233,0.50,70.00,1409.38,714.27,695.12
231,1238,0.50,70.00,1409.93,714.19,695.74
232,1246,0.50,70.00,1410.37,715.10,695.27
233,1251,0.50,70.00,1410.71,714.85,695.86
234,1256,0.50,70.00,1410.99,714.66,696.34
235,1261,0.50,70.00,1411.22,716.45,694.77
236,1265,0.50,70.00,1411.40,713.98,697.41
237,1270,0.50,70.00,1411.54,713.96,697.58
238,1275,0.50,70.00,1411.65,714.92,696.74
239,1280,0.50,70.00,1411.74,714.71,697.04
240,1285,0.50,70.00,1411.82,715.52,696.30
241,1291,0.50,70.00,1411.88,715.19,696.69
242,1295,0.50,70.00,1411.92,715.90,696.02
243,1300,0.50,70.00,1411.96,715.49,696.47
244,1307,0.50,70.00,1412.97,716.14,696.82
245,1312,0.50,70.00,1412.79,715.69,697.11
246,1317,0.50,70.00,1412.66,716.30,696.36
247,1322,0.50,70.00,1412.55,716.79,695.76
248,1327,0.50,70.00,1412.46,714.25,698.21
249,1332,0.50,70.00,1412.39,714.18,698.21
250,1337,0.50,70.00,1412.33,714.11,698.22
251,1342,0.50,70.00,1412.29,715.04,697.25
252,1347,0.50,70.00,1412.25,715.78,696.47
253,1352,0.50,70.00,1412.22,715.40,696.82
254,1356,0.50,70.00,1413.18,716.07,697.11
255,1361,0.50,70.00,1412.96,717.58,695.38
256,1368,0.50,70.00,1412.79,716.84,695.95
257,1374,0.50,70.00,1412.66,716.24,696.41
258,1379,0.50,70.00,1411.57,716.75,694.82
259,1384,0.50,70.00,1410.70,717.15,693.56
260,1389,0.50,70.00,1410.01,716.49,693.52
261,1393,0.50,70.00,1410.43,717.92,692.51
262,1398,0.50,70.00,1412.72,717.11,695.61
263,1403,0.50,70.00,1412.60,716.46,696.14
264,1408,0.50,70.00,1412.50,715.94,696.56
265,1413,0.50,70.00,1412.42,715.53,696.89
266,1419,0.50,70.00,1412.36,716.17,696.19
267,1423,0.50,70.00,1411.33,715.71,695.62
268,1431,0.50,70.00,1411.49,715.34,696.15
269,1435,0.50,70.00,1411.61,715.05,696.56
270,1440,0.50,70.00,1411.71,714.81,696.90
271,1445,0.50,70.00,1411.79,714.62,697.17
272,1450,0.50,70.00,1411.85,714.47,697.38
273,1455,0.50,70.00,1410.93,714.35,696.58
274,1461,0.50,70.00,1410.19,714.25,695.93
275,1466,0.50,70.00,1410.57,715.15,695.42
276,1470,0.50,70.00,1410.88,714.90,695.98
277,1475,0.50,70.00,1411.13,714.69,696.44
278,1480,0.50,70.00,1411.32,714.53,696.80
279,1485,0.50,70.00,1411.48,714.39,697.09
280,1491,0.50,70.00,1411.61,714.29,697.32
281,1496,0.50,70.00,1408.78,714.20,694.57
282,1502,0.50,70.00,1408.47,714.14,694.33
283,1507,0.50,70.00,1407.24,714.08,693.16
284,1512,0.50,70.00,1407.24,714.04,693.20
285,1517,0.50,70.00,1406.26,714.01,692.26
286,1521,0.50,70.00,1405.48,713.98,691.50
287,1526,0.50,70.00,1405.83,713.96,691.87
288,1531,0.50,70.00,1405.13,713.94,691.19
289,1537,0.50,70.00,1406.53,713.92,692.60
290,1541,0.50,70.00,1406.67,713.91,692.75
291,1547,0.50,70.00,1407.75,712.93,694.83
292,1554,0.50,70.00,1408.63,713.11,695.51
293,1559,0.50,70.00,1409.32,713.27,696.06
294,1564,0.50,70.00,1408.90,713.39,695.52
295,1568,0.50,70.00,1408.57,713.48,695.09
296,1573,0.50,70.00,1408.30,713.56,694.74
297,1578,0.50,70.00,1407.11,713.62,693.49
298,1583,0.50,70.00,1406.16,713.67,692.49
299,1589,0.50,70.00,1405.39,712.73,692.66
300,1594,0.50,70.00,1405.76,712.96,692.80
301,1598,0.50,70.00,1405.08,713.14,691.94
302,1603,0.50,70.00,1404.53,713.29,691.24
303,1608,0.50,70.00,1405.07,713.40,691.67
304,1615,0.50,70.00,1407.45,713.50,693.96
305,1620,0.50,70.00,1408.39,713.57,694.82
306,1625,0.50,70.00,1409.13,713.63,695.50
307,1631,0.50,70.00,1409.73,713.68,696.05
308,1635,0.50,70.00,1410.20,713.71,696.49
309,1640,0.50,70.00,1409.61,713.75,695.86
310,1645,0.50,70.00,1410.11,713.77,696.34
311,1650,0.50,70.00,1410.51,713.79,696.72
312,1655,0.50,70.00,1410.83,713.80,697.02
313,1660,0.50,70.00,1411.08,713.82,697.27
314,1665,0.50,70.00,1411.29,713.83,697.46
315,1669,0.50,70.00,1411.45,713.84,697.62
316,1677,0.50,70.00,1411.58,713.84,697.74
317,1682,0.50,70.00,1411.69,713.85,697.84
318,1687,0.50,70.00,1411.77,713.85,697.92
319,1692,0.50,70.00,1411.84,711.90,699.94
320,1697,0.50,70.00,1410.92,712.29,698.62
321,1702,0.50,70.00,1410.18,712.61,697.57
322,1707,0.50,70.00,1409.59,712.86,696.73
323,1711,0.50,70.00,1409.12,713.06,696.06
324,1717,0.50,70.00,1409.72,713.22,696.49
325,1722,0.50,70.00,1410.19,713.35,696.84
326,1727,0.50,70.00,1409.60,713.45,696.15
327,1735,0.50,70.00,1410.10,713.54,696.57
328,1738,0.50,70.00,1410.50,713.60,696.90
329,1743,0.50,70.00,1409.85,714.63,695.22
330,1748,0.50,70.00,1407.37,715.46,691.92
331,1753,0.50,70.00,1408.32,715.14,693.18
332,1759,0.50,70.00,1409.08,714.88,694.19
333,1763,0.50,70.00,1407.73,714.68,693.05
334,1768,0.50,70.00,1408.61,714.52,694.09
335,1773,0.50,70.00,1409.31,714.39,694.92
336,1778,0.50,70.00,1409.87,715.26,694.61
337,1783,0.50,70.00,1410.32,715.96,694.36
338,1788,0.50,70.00,1410.67,715.54,695.13
339,1795,0.50,70.00,1410.96,715.21,695.76
340,1799,0.50,70.00,1410.21,714.94,695.28
341,1806,0.50,70.00,1409.62,715.70,693.92
342,1810,0.50,70.00,1409.14,715.33,693.81
343,1815,0.50,70.00,1409.73,715.04,694.69
344,1820,0.50,70.00,1410.21,714.81,695.40
345,1825,0.50,70.00,1409.61,715.59,694.02
346,1830,0.50,70.00,1410.11,715.25,694.86
347,1834,0.50,70.00,1410.51,714.97,695.54
348,1839,0.50,70.00,1410.83,714.75,696.08
349,1845,0.50,70.00,1411.09,715.55,695.54
350,1850,0.50,70.00,1411.29,715.21,696.08
351,1857,0.50,70.00,1411.45,717.87,693.58
352,1862,0.50,70.00,1411.59,718.05,693.54
353,1866,0.50,70.00,1410.71,719.17,691.55
354,1871,0.50,70.00,1410.99,721.04,689.96
355,1876,0.50,70.00,1410.24,719.60,690.64
356,1881,0.50,70.00,1413.54,718.46,695.09
357,1887,0.50,70.00,1412.28,717.54,694.74
358,1892,0.50,70.00,1410.29,716.80,693.49
359,1896,0.50,70.00,1410.66,716.22,694.44
360,1901,0.50,70.00,1406.06,715.75,690.32
361,1906,0.50,70.00,1411.18,714.39,696.79
362,1911,0.50,70.00,1410.39,714.29,696.10
363,1918,0.50,70.00,1410.73,714.20,696.53
364,1923,0.50,70.00,1411.01,714.14,696.87
365,1927,0.50,70.00,1411.23,714.08,697.15
366,1933,0.50,70.00,1410.43,714.04,696.39
367,1938,0.50,70.00,1411.74,714.01,697.74
368,1943,0.50,70.00,1412.79,713.98,698.81
369,1948,0.50,70.00,1412.65,713.96,698.70
370,1952,0.50,70.00,1412.55,713.94,698.61
371,1957,0.50,70.00,1412.46,713.92,698.53
372,1962,0.50,70.00,1411.41,713.91,697.50
373,1967,0.50,70.00,1410.58,713.90,696.67
374,1973,0.50,70.00,1410.88,712.92,697.96
375,1980,0.50,70.00,1411.13,713.11,698.02
376,1985,0.50,70.00,1411.32,713.26,698.06
377,1990,0.50,70.00,1411.48,713.38,698.10
378,1994,0.50,70.00,1411.61,711.53,700.08
379,1999,0.50,70.00,1411.71,711.99,699.71
380,2004,0.50,70.00,1411.79,712.37,699.42
381,2009,0.50,70.00,1411.85,711.69,700.16
382,2015,0.50,70.00,1411.90,712.13,699.78
383,2020,0.50,70.00,1411.94,712.47,699.47
384,2024,0.50,70.00,1411.98,713.73,698.25
385,2029,0.50,70.00,1412.00,713.76,698.25
386,2034,0.50,70.00,1412.03,713.78,698.25
387,2041,0.50,70.00,1412.04,713.80,698.25
388,2046,0.50,70.00,1414.01,713.81,700.20
389,2080,0.50,70.00,1413.63,716.75,696.88
390,2084,0.50,70.00,1413.32,716.17,697.15
391,2089,0.50,70.00,1413.08,715.71,697.37
392,2094,0.50,70.00,1412.89,716.32,696.57
393,2100,0.50,70.00,1412.73,715.83,696.90
394,2105,0.50,70.00,1412.61,716.41,696.19
395,2110,0.50,70.00,1412.51,715.90,696.60
396,2114,0.50,70.00,1412.43,715.50,696.93
397,2119,0.50,70.00,1412.36,715.17,697.19
398,2124,0.50,70.00,1413.29,715.89,697.40
399,2131,0.50,70.00,1413.05,716.46,696.59
400,2136,0.50,70.00,1412.86,716.92,695.95
401,2142,0.50,70.00,1412.71,717.28,695.43
402,2146,0.50,70.00,1412.59,719.53,693.06
403,2151,0.50,70.00,1412.50,718.40,694.10
404,2156,0.50,70.00,1413.40,718.47,694.93
405,2161,0.50,70.00,1413.14,717.55,695.59
406,2166,0.50,70.00,1412.93,717.79,695.14
407,2170,0.50,70.00,1412.77,717.00,695.76
408,2175,0.50,70.00,1412.64,717.35,695.28
409,2180,0.50,70.00,1412.53,717.63,694.90
410,2186,0.50,70.00,1412.45,717.86,694.59
411,2193,0.50,70.00,1413.36,717.06,696.30
412,2198,0.50,70.00,1413.11,715.44,697.66
413,2203,0.50,70.00,1412.91,718.06,694.85
414,2208,0.50,70.00,1412.75,718.20,694.55
415,2212,0.50,70.00,1412.62,717.33,695.29
416,2217,0.50,70.00,1412.52,717.61,694.90
417,2222,0.50,70.00,1411.46,717.84,693.62
418,2228,0.50,70.00,1410.61,719.00,691.61
419,2233,0.50,70.00,1409.94,717.00,692.94
420,2237,0.50,70.00,1409.39,716.37,693.02
421,2243,0.50,70.00,1407.98,715.87,692.11
422,2247,0.50,70.00,1406.86,715.47,691.39
423,2254,0.50,70.00,1407.91,715.15,692.76
424,2259,0.50,70.00,1406.79,714.89,691.90
425,2263,0.50,70.00,1405.90,714.69,691.22
426,2268,0.50,70.00,1405.19,714.52,690.67
427,2274,0.50,70.00,1404.62,714.39,690.23
428,2279,0.50,70.00,1405.14,714.29,690.86
429,2284,0.50,70.00,1404.58,714.20,690.38
430,2288,0.50,70.00,1404.14,714.14,690.00
431,2293,0.50,70.00,1405.73,713.11,692.62
432,2298,0.50,70.00,1406.03,713.26,692.77
433,2303,0.50,70.00,1407.25,714.36,692.89
434,2308,0.50,70.00,1407.24,712.31,694.94
435,2316,0.50,70.00,1406.26,712.62,693.64
436,2321,0.50,70.00,1405.48,712.87,692.61
437,2326,0.50,70.00,1405.83,712.09,693.74
438,2330,0.50,70.00,1407.08,712.45,694.64
439,2335,0.50,70.00,1408.09,709.80,698.29
440,2340,0.50,70.00,1410.85,709.64,701.21
441,2345,0.50,70.00,1411.10,710.48,700.62
442,2350,0.50,70.00,1411.30,711.16,700.14
443,2356,0.50,70.00,1411.46,711.70,699.76
444,2361,0.50,70.00,1411.59,713.11,698.48
445,2365,0.50,70.00,1409.74,713.26,696.48
446,2370,0.50,70.00,1409.24,713.38,695.86
447,2377,0.50,70.00,1409.81,715.43,694.38
448,2382,0.50,70.00,1410.27,715.12,695.15
449,2387,0.50,70.00,1410.64,714.87,695.77
450,2392,0.50,70.00,1410.93,714.67,696.27
451,2398,0.50,70.00,1411.17,714.51,696.66
452,2402,0.50,70.00,1411.36,714.38,696.98
453,2407,0.50,70.00,1411.51,714.28,697.23
454,2412,0.50,70.00,1410.65,714.20,696.46
455,2417,0.50,70.00,1410.94,714.13,696.81
456,2422,0.50,70.00,1411.18,713.10,698.08
457,2427,0.50,70.00,1411.36,713.25,698.11
458,2435,0.50,70.00,1410.54,713.38,697.16
459,2438,0.50,70.00,1410.85,712.50,698.35
460,2444,0.50,70.00,1411.10,712.77,698.33
461,2449,0.50,70.00,1411.30,712.99,698.31
462,2454,0.50,70.00,1409.51,713.17,696.35
463,2459,0.50,70.00,1410.03,712.33,697.70
464,2464,0.50,70.00,1410.45,712.64,697.81
465,2468,0.50,70.00,1410.78,712.88,697.90
466,2473,0.50,70.00,1411.05,713.08,697.97
467,2478,0.50,70.00,1411.26,714.21,697.04
468,2484,0.50,70.00,1410.45,715.12,695.33
469,2489,0.50,70.00,1410.78,715.85,694.94
470,2496,0.50,70.00,1411.05,715.45,695.60
471,2501,0.50,70.00,1410.28,715.13,695.15
472,2505,0.50,70.00,1410.65,715.86,694.79
473,2510,0.50,70.00,1409.96,715.46,694.51
474,2515,0.50,70.00,1410.39,716.12,694.28
475,2520,0.50,70.00,1410.74,715.67,695.07
476,2526,0.50,70.00,1407.11,715.31,691.80
477,2531,0.50,70.00,1408.11,713.07,695.04
478,2536,0.50,70.00,1408.91,713.23,695.68
479,2540,0.50,70.00,1409.55,713.35,696.19
480,2545,0.50,70.00,1410.06,714.43,695.63
