#, ElapsedTime[ms], Freq[Hz], Duty[%], Pres1[Pa], Pres2[Pa], Pres_diff[Pa]
0,0,0.50,60.00,-1738.72,-1443.06,-295.66
1,35,0.50,60.00,-1740.39,-1445.27,-295.13
2,40,0.50,60.00,-1742.70,-1448.01,-294.69
3,45,0.50,60.00,-1743.58,-1449.23,-294.35
4,49,0.50,60.00,-1744.28,-1450.20,-294.07
5,54,0.50,60.00,-1740.93,-1450.98,-289.95
6,59,0.50,60.00,-1742.16,-1451.61,-290.55
7,65,0.50,60.00,-1743.14,-1452.11,-291.03
8,70,0.50,60.00,-1746.86,-1452.51,-294.35
9,75,0.50,60.00,-1746.90,-1452.82,-294.07
10,79,0.50,60.00,-1746.93,-1453.08,-293.85
11,86,0.50,60.00,-1746.96,-1450.35,-296.61
12,91,0.50,60.00,-1746.98,-1451.10,-295.88
13,96,0.50,60.00,-1747.00,-1451.70,-295.30
14,101,0.50,60.00,-1747.01,-1452.18,-294.83
15,106,0.50,60.00,-1748.00,-1451.59,-296.41
16,111,0.50,60.00,-1747.82,-1452.09,-295.72
17,116,0.50,60.00,-1747.67,-1452.49,-295.17
18,121,0.50,60.00,-1747.55,-1450.86,-296.68
19,126,0.50,60.00,-1747.45,-1450.53,-296.92
20,131,0.50,60.00,-1746.40,-1450.27,-296.13
21,135,0.50,60.00,-1746.53,-1450.06,-296.47
22,142,0.50,60.00,-1745.66,-1448.92,-296.75
23,148,0.50,60.00,-1745.95,-1448.98,-296.97
24,153,0.50,60.00,-1746.17,-1447.07,-299.10
25,158,0.50,60.00,-1746.35,-1446.52,-299.83
26,163,0.50,60.00,-1746.49,-1447.06,-299.43
27,168,0.50,60.00,-1745.63,-1447.49,-298.14
28,172,0.50,60.00,-1743.97,-1447.84,-296.13
29,177,0.50,60.00,-1743.61,-1448.12,-295.50
30,182,0.50,60.00,-1744.30,-1447.36,-296.94
31,187,0.50,60.00,-1742.90,-1448.71,-294.20
32,193,0.50,60.00,-1742.76,-1447.83,-294.93
33,201,0.50,60.00,-1742.65,-1447.13,-295.51
34,204,0.50,60.00,-1741.58,-1447.55,-294.03
35,209,0.50,60.00,-1740.72,-1447.88,-292.84
36,214,0.50,60.00,-1741.02,-1451.08,-289.93
37,219,0.50,60.00,-1741.25,-1450.71,-290.54
38,224,0.50,60.00,-1741.44,-1452.36,-289.07
39,228,0.50,60.00,-1741.59,-1450.76,-290.83
40,234,0.50,60.00,-1740.73,-1449.47,-291.26
41,239,0.50,60.00,-1740.05,-1448.45,-291.60
42,244,0.50,60.00,-1739.50,-1447.62,-291.87
43,249,0.50,60.00,-1740.04,-1446.97,-293.07
44,254,0.50,60.00,-1739.49,-1446.44,-293.05
45,261,0.50,60.00,-1740.03,-1446.02,-294.01
46,265,0.50,60.00,-1740.46,-1445.68,-294.78
47,270,0.50,60.00,-1739.83,-1445.41,-294.42
48,276,0.50,60.00,-1740.30,-1447.15,-293.15
49,281,0.50,60.00,-1740.68,-1446.59,-294.09
50,286,0.50,60.00,-1740.98,-1446.14,-294.84
51,291,0.50,60.00,-1742.20,-1445.78,-296.42
52,296,0.50,60.00,-1741.22,-1445.49,-295.73
53,300,0.50,60.00,-1741.41,-1445.26,-296.15
54,305,0.50,60.00,-1741.57,-1445.07,-296.49
55,310,0.50,60.00,-1741.69,-1444.93,-296.77
56,317,0.50,60.00,-1741.79,-1443.83,-297.96
57,323,0.50,60.00,-1742.85,-1443.93,-298.91
58,328,0.50,60.00,-1743.69,-1444.01,-299.68
59,332,0.50,60.00,-1743.39,-1443.10,-300.29
60,337,0.50,60.00,-1743.15,-1443.35,-299.80
61,342,0.50,60.00,-1741.98,-1445.50,-296.48
62,347,0.50,60.00,-1742.02,-1447.22,-294.80
63,352,0.50,60.00,-1742.06,-1446.64,-295.41
64,357,0.50,60.00,-1743.06,-1446.18,-296.88
65,362,0.50,60.00,-1743.86,-1445.81,-298.05
66,367,0.50,60.00,-1743.53,-1445.52,-298.01
67,372,0.50,60.00,-1743.26,-1445.28,-297.98
68,379,0.50,60.00,-1743.04,-1444.12,-298.93
69,384,0.50,60.00,-1742.87,-1443.18,-299.69
70,389,0.50,60.00,-1742.74,-1443.41,-299.32
71,394,0.50,60.00,-1742.63,-1443.60,-299.03
72,399,0.50,60.00,-1742.54,-1442.77,-299.77
73,404,0.50,60.00,-1742.47,-1442.11,-300.36
74,409,0.50,60.00,-1743.39,-1443.53,-299.86
75,414,0.50,60.00,-1741.20,-1443.69,-297.51
76,419,0.50,60.00,-1741.39,-1442.84,-298.55
77,424,0.50,60.00,-1739.60,-1443.14,-296.46
78,428,0.50,60.00,-1740.12,-1443.38,-296.74
79,436,0.50,60.00,-1740.53,-1442.59,-297.94
80,440,0.50,60.00,-1740.86,-1441.97,-298.90
81,445,0.50,60.00,-1739.17,-1442.44,-296.73
82,451,0.50,60.00,-1737.82,-1442.82,-295.00
83,456,0.50,60.00,-1736.74,-1443.12,-293.62
84,461,0.50,60.00,-1735.88,-1442.39,-293.49
85,466,0.50,60.00,-1736.16,-1442.78,-293.39
86,470,0.50,60.00,-1735.42,-1443.09,-292.33
87,475,0.50,60.00,-1732.86,-1442.36,-290.50
88,480,0.50,60.00,-1733.75,-1441.78,-291.97
89,485,0.50,60.00,-1735.44,-1442.29,-293.15
90,493,0.50,60.00,-1744.60,-1444.65,-299.95
91,498,0.50,60.00,-1743.14,-1443.61,-299.53
92,503,0.50,60.00,-1741.97,-1442.78,-299.19
93,507,0.50,60.00,-1741.04,-1442.12,-298.92
94,513,0.50,60.00,-1740.29,-1439.63,-300.66
95,518,0.50,60.00,-1740.67,-1439.59,-301.08
96,523,0.50,60.00,-1740.98,-1439.57,-301.41
97,527,0.50,60.00,-1739.26,-1439.54,-299.72
98,533,0.50,60.00,-1739.85,-1439.53,-300.32
99,538,0.50,60.00,-1739.34,-1439.51,-299.83
100,543,0.50,60.00,-1737.96,-1439.50,-298.46
101,548,0.50,60.00,-1736.85,-1439.49,-297.36
102,555,0.50,60.00,-1735.96,-1439.48,-296.48
103,560,0.50,60.00,-1736.23,-1439.48,-296.76
104,565,0.50,60.00,-1736.45,-1439.47,-296.97
105,569,0.50,60.00,-1735.64,-1439.47,-296.17
106,575,0.50,60.00,-1735.97,-1439.47,-296.51
107,580,0.50,60.00,-1733.31,-1439.46,-293.85
108,585,0.50,60.00,-1734.11,-1439.46,-294.65
109,590,0.50,60.00,-1736.70,-1442.39,-294.31
110,595,0.50,60.00,-1736.82,-1441.80,-295.02
111,599,0.50,60.00,-1736.92,-1441.33,-295.59
112,604,0.50,60.00,-1736.02,-1440.96,-295.06
113,611,0.50,60.00,-1736.28,-1440.66,-295.62
114,616,0.50,60.00,-1737.46,-1440.42,-297.04
115,622,0.50,60.00,-1737.43,-1440.22,-297.21
116,627,0.50,60.00,-1738.38,-1443.98,-294.40
117,632,0.50,60.00,-1737.19,-1443.07,-294.12
118,636,0.50,60.00,-1737.21,-1442.35,-294.86
119,641,0.50,60.00,-1736.25,-1441.77,-294.49
120,646,0.50,60.00,-1736.46,-1441.31,-295.16
121,651,0.50,60.00,-1735.66,-1440.93,-294.72
122,656,0.50,60.00,-1735.99,-1440.64,-295.35
123,662,0.50,60.00,-1737.23,-1440.40,-296.82
124,668,0.50,60.00,-1738.22,-1443.14,-295.08
125,673,0.50,60.00,-1739.01,-1442.40,-296.61
126,678,0.50,60.00,-1739.65,-1441.81,-297.83
127,683,0.50,60.00,-1745.04,-1444.27,-300.77
128,688,0.50,60.00,-1744.47,-1443.31,-301.16
129,693,0.50,60.00,-1743.04,-1442.54,-300.50
130,697,0.50,60.00,-1742.87,-1441.92,-300.95
131,703,0.50,60.00,-1741.75,-1440.45,-301.30
132,708,0.50,60.00,-1741.84,-1440.25,-301.59
133,713,0.50,60.00,-1741.91,-1440.09,-301.82
134,718,0.50,60.00,-1741.97,-1442.89,-299.07
135,725,0.50,60.00,-1741.03,-1444.16,-296.87
136,730,0.50,60.00,-1740.29,-1444.19,-296.09
137,735,0.50,60.00,-1739.69,-1443.25,-296.45
138,739,0.50,60.00,-1740.19,-1443.46,-296.73
139,744,0.50,60.00,-1740.59,-1445.59,-295.00
140,750,0.50,60.00,-1737.00,-1447.29,-289.71
141,755,0.50,60.00,-1738.04,-1447.68,-290.36
142,760,0.50,60.00,-1738.87,-1447.99,-290.88
143,765,0.50,60.00,-1739.53,-1450.19,-289.35
144,769,0.50,60.00,-1740.06,-1450.97,-289.09
145,774,0.50,60.00,-1740.49,-1450.62,-289.87
146,781,0.50,60.00,-1741.81,-1451.32,-290.49
147,786,0.50,60.00,-1741.88,-1453.83,-288.06
148,792,0.50,60.00,-1741.94,-1451.93,-290.01
149,797,0.50,60.00,-1741.99,-1452.36,-289.63
150,802,0.50,60.00,-1742.03,-1451.73,-290.30
151,806,0.50,60.00,-1742.06,-1452.21,-289.85
152,811,0.50,60.00,-1742.09,-1448.68,-293.41
153,816,0.50,60.00,-1743.08,-1448.79,-294.30
154,821,0.50,60.00,-1743.88,-1447.90,-295.98
155,826,0.50,60.00,-1744.52,-1449.14,-295.38
156,832,0.50,60.00,-1744.05,-1449.15,-294.90
157,838,0.50,60.00,-1743.68,-1448.19,-295.49
158,843,0.50,60.00,-1744.36,-1447.42,-296.94
159,848,0.50,60.00,-1743.92,-1446.80,-297.12
160,853,0.50,60.00,-1743.58,-1446.31,-297.27
161,858,0.50,60.00,-1743.30,-1445.91,-297.38
162,863,0.50,60.00,-1746.01,-1445.60,-300.41
163,867,0.50,60.00,-1745.24,-1445.35,-299.90
164,872,0.50,60.00,-1744.63,-1445.14,-299.49
165,878,0.50,60.00,-1744.14,-1444.98,-299.16
166,883,0.50,60.00,-1743.75,-1444.85,-298.90
167,888,0.50,60.00,-1743.44,-1445.73,-297.71
168,896,0.50,60.00,-1743.19,-1445.45,-297.74
169,899,0.50,60.00,-1742.99,-1445.23,-297.76
170,904,0.50,60.00,-1743.80,-1445.05,-298.76
171,909,0.50,60.00,-1743.48,-1444.91,-298.58
172,914,0.50,60.00,-1743.22,-1444.79,-298.43
173,920,0.50,60.00,-1743.99,-1444.70,-299.29
174,924,0.50,60.00,-1744.61,-1444.63,-299.98
175,929,0.50,60.00,-1744.12,-1444.57,-299.55
176,934,0.50,60.00,-1743.74,-1444.52,-299.21
177,939,0.50,60.00,-1743.43,-1444.49,-298.94
178,944,0.50,60.00,-1743.18,-1443.48,-299.70
179,949,0.50,60.00,-1742.98,-1443.65,-299.33
180,956,0.50,60.00,-1743.80,-1443.79,-300.01
181,962,0.50,60.00,-1743.48,-1443.90,-299.58
182,966,0.50,60.00,-1743.22,-1443.98,-299.23
183,971,0.50,60.00,-1743.01,-1444.06,-298.96
184,976,0.50,60.00,-1742.85,-1444.11,-298.74
185,981,0.50,60.00,-1742.72,-1444.16,-298.56
186,986,0.50,60.00,-1743.59,-1444.19,-299.39
187,991,0.50,60.00,-1743.31,-1444.22,-299.09
188,995,0.50,60.00,-1743.08,-1444.24,-298.84
189,1000,0.50,60.00,-1742.90,-1444.26,-298.64
190,1006,0.50,60.00,-1742.76,-1444.28,-298.48
191,1013,0.50,60.00,-1741.67,-1444.29,-297.38
192,1018,0.50,60.00,-1741.77,-1444.30,-297.47
193,1022,0.50,60.00,-1741.86,-1444.31,-297.55
194,1057,0.50,60.00,-1741.92,-1444.31,-297.61
195,1062,0.50,60.00,-1741.98,-1444.32,-297.66
196,1067,0.50,60.00,-1742.02,-1444.32,-297.70
197,1072,0.50,60.00,-1741.08,-1443.35,-297.73
198,1076,0.50,60.00,-1740.32,-1443.54,-296.78
199,1081,0.50,60.00,-1738.74,-1443.70,-295.04
200,1087,0.50,60.00,-1739.43,-1443.83,-295.60
201,1092,0.50,60.00,-1739.98,-1443.93,-296.05
202,1099,0.50,60.00,-1740.42,-1444.01,-296.41
203,1104,0.50,60.00,-1740.78,-1444.08,-296.70
204,1108,0.50,60.00,-1741.06,-1444.13,-296.93
205,1113,0.50,60.00,-1739.33,-1444.17,-295.16
206,1118,0.50,60.00,-1739.90,-1443.23,-296.68
207,1123,0.50,60.00,-1740.36,-1443.45,-296.91
208,1128,0.50,60.00,-1740.72,-1442.65,-298.08
209,1134,0.50,60.00,-1741.02,-1442.99,-298.03
210,1138,0.50,60.00,-1741.25,-1442.28,-298.97
211,1143,0.50,60.00,-1741.44,-1442.69,-298.75
212,1152,0.50,60.00,-1740.61,-1443.02,-297.59
213,1155,0.50,60.00,-1743.86,-1440.35,-303.50
214,1160,0.50,60.00,-1743.52,-1440.17,-303.35
215,1165,0.50,60.00,-1743.26,-1441.01,-302.25
216,1170,0.50,60.00,-1742.07,-1441.67,-300.39
217,1176,0.50,60.00,-1743.07,-1441.23,-301.84
218,1180,0.50,60.00,-1742.89,-1441.85,-301.04
219,1185,0.50,60.00,-1742.75,-1442.35,-300.40
220,1190,0.50,60.00,-1742.64,-1441.77,-300.87
221,1195,0.50,60.00,-1747.43,-1443.26,-304.17
222,1200,0.50,60.00,-1746.38,-1442.50,-303.88
223,1207,0.50,60.00,-1745.54,-1441.89,-303.65
224,1212,0.50,60.00,-1743.90,-1441.40,-302.49
225,1218,0.50,60.00,-1743.55,-1441.01,-302.54
226,1222,0.50,60.00,-1742.30,-1440.70,-301.60
227,1227,0.50,60.00,-1742.28,-1440.45,-301.83
228,1232,0.50,60.00,-1741.29,-1440.25,-301.03
229,1237,0.50,60.00,-1740.49,-1440.09,-300.40
230,1242,0.50,60.00,-1740.83,-1439.96,-300.86
231,1247,0.50,60.00,-1741.10,-1439.86,-301.24
232,1251,0.50,60.00,-1740.34,-1439.78,-300.56
233,1256,0.50,60.00,-1738.76,-1439.71,-299.04
234,1264,0.50,60.00,-1737.49,-1439.66,-297.83
235,1269,0.50,60.00,-1736.48,-1438.64,-297.83
236,1274,0.50,60.00,-1733.71,-1439.78,-293.93
237,1279,0.50,60.00,-1733.45,-1439.72,-293.74
238,1284,0.50,60.00,-1734.22,-1439.66,-294.56
239,1288,0.50,60.00,-1733.86,-1439.62,-294.24
240,1293,0.50,60.00,-1731.62,-1439.59,-292.03
241,1298,0.50,60.00,-1731.78,-1439.56,-292.22
242,1304,0.50,60.00,-1732.89,-1439.54,-293.35
243,1309,0.50,60.00,-1732.79,-1437.57,-295.22
244,1314,0.50,60.00,-1732.72,-1437.95,-294.77
245,1321,0.50,60.00,-1732.66,-1438.25,-294.41
246,1326,0.50,60.00,-1732.61,-1438.49,-294.12
247,1330,0.50,60.00,-1732.57,-1438.68,-293.89
248,1335,0.50,60.00,-1732.54,-1441.77,-290.78
249,1340,0.50,60.00,-1732.52,-1441.30,-291.22
250,1346,0.50,60.00,-1732.50,-1440.93,-291.57
251,1351,0.50,60.00,-1732.48,-1440.64,-291.85
252,1356,0.50,60.00,-1732.47,-1440.40,-292.07
253,1361,0.50,60.00,-1732.46,-1440.21,-292.25
254,1365,0.50,60.00,-1732.45,-1438.11,-294.35
255,1370,0.50,60.00,-1732.45,-1438.38,-294.07
256,1377,0.50,60.00,-1732.44,-1438.59,-293.85
257,1382,0.50,60.00,-1732.44,-1439.74,-292.70
258,1388,0.50,60.00,-1733.41,-1438.71,-294.71
259,1393,0.50,60.00,-1733.21,-1438.86,-294.36
260,1397,0.50,60.00,-1734.03,-1438.98,-295.06
261,1402,0.50,60.00,-1734.69,-1439.07,-295.62
262,1407,0.50,60.00,-1732.28,-1439.15,-293.13
263,1412,0.50,60.00,-1733.29,-1439.21,-294.08
264,1417,0.50,60.00,-1735.07,-1439.26,-295.81
265,1422,0.50,60.00,-1734.54,-1439.30,-295.24
266,1428,0.50,60.00,-1734.11,-1439.33,-294.79
267,1435,0.50,60.00,-1733.78,-1439.35,-294.42
268,1439,0.50,60.00,-1734.48,-1439.37,-295.11
269,1444,0.50,60.00,-1735.05,-1439.39,-295.66
270,1449,0.50,60.00,-1734.52,-1439.40,-295.12
271,1454,0.50,60.00,-1734.10,-1439.41,-294.69
272,1459,0.50,60.00,-1733.77,-1440.40,-293.37
273,1463,0.50,60.00,-1735.45,-1443.14,-292.31
274,1468,0.50,60.00,-1740.70,-1444.35,-296.35
275,1474,0.50,60.00,-1740.02,-1444.35,-295.67
276,1479,0.50,60.00,-1740.46,-1444.35,-296.11
277,1484,0.50,60.00,-1738.85,-1444.35,-294.50
278,1491,0.50,60.00,-1737.56,-1444.34,-293.22
279,1496,0.50,60.00,-1737.51,-1444.34,-293.17
280,1501,0.50,60.00,-1738.45,-1444.34,-294.11
281,1506,0.50,60.00,-1738.22,-1444.34,-293.88
282,1511,0.50,60.00,-1739.01,-1444.34,-294.67
283,1516,0.50,60.00,-1739.65,-1444.34,-295.31
284,1521,0.50,60.00,-1740.16,-1444.34,-295.82
285,1526,0.50,60.00,-1740.56,-1444.34,-296.22
286,1531,0.50,60.00,-1740.89,-1444.34,-296.55
287,1536,0.50,60.00,-1741.15,-1444.34,-296.81
288,1571,0.50,60.00,-1741.36,-1444.34,-297.02
289,1578,0.50,60.00,-1741.52,-1444.34,-297.19
290,1583,0.50,60.00,-1741.66,-1444.34,-297.32
291,1587,0.50,60.00,-1741.76,-1444.34,-297.43
292,1592,0.50,60.00,-1741.85,-1442.38,-299.46
293,1597,0.50,60.00,-1741.91,-1442.77,-299.14
294,1603,0.50,60.00,-1741.97,-1444.06,-297.91
295,1608,0.50,60.00,-1742.01,-1444.12,-297.90
296,1613,0.50,60.00,-1739.12,-1446.11,-293.00
297,1617,0.50,60.00,-1739.73,-1445.76,-293.97
298,1622,0.50,60.00,-1740.22,-1445.47,-294.75
299,1627,0.50,60.00,-1740.62,-1444.27,-296.35
300,1634,0.50,60.00,-1738.98,-1444.28,-294.69
301,1639,0.50,60.00,-1738.64,-1444.29,-294.35
302,1645,0.50,60.00,-1738.38,-1444.30,-294.07
303,1650,0.50,60.00,-1735.23,-1445.29,-289.95
304,1654,0.50,60.00,-1735.65,-1445.10,-290.55
305,1659,0.50,60.00,-1733.05,-1444.94,-288.10
306,1664,0.50,60.00,-1734.88,-1445.80,-289.08
307,1669,0.50,60.00,-1735.36,-1445.51,-289.86
308,1674,0.50,60.00,-1734.77,-1445.27,-289.50
309,1679,0.50,60.00,-1735.28,-1444.11,-291.17
310,1684,0.50,60.00,-1735.68,-1443.18,-292.51
311,1692,0.50,60.00,-1735.03,-1442.43,-292.60
312,1697,0.50,60.00,-1736.46,-1441.84,-294.63
313,1702,0.50,60.00,-1736.63,-1441.36,-295.27
314,1706,0.50,60.00,-1736.77,-1443.91,-292.86
315,1711,0.50,60.00,-1735.90,-1443.99,-291.90
316,1716,0.50,60.00,-1737.16,-1443.09,-294.07
317,1721,0.50,60.00,-1738.16,-1442.36,-295.80
318,1727,0.50,60.00,-1738.97,-1442.75,-296.21
319,1732,0.50,60.00,-1738.63,-1442.09,-296.54
320,1736,0.50,60.00,-1739.35,-1442.54,-296.80
321,1744,0.50,60.00,-1739.91,-1442.90,-297.01
322,1748,0.50,60.00,-1741.35,-1443.19,-298.16
323,1753,0.50,60.00,-1746.40,-1443.42,-302.98
324,1758,0.50,60.00,-1745.55,-1442.62,-302.93
325,1763,0.50,60.00,-1744.88,-1442.97,-301.91
326,1768,0.50,60.00,-1743.37,-1442.26,-301.10
327,1773,0.50,60.00,-1742.15,-1441.70,-300.45
328,1779,0.50,60.00,-1742.16,-1441.25,-300.91
329,1783,0.50,60.00,-1742.17,-1440.89,-301.27
330,1788,0.50,60.00,-1741.19,-1441.58,-299.61
331,1793,0.50,60.00,-1742.37,-1441.16,-301.21
332,1800,0.50,60.00,-1742.33,-1440.82,-301.52
333,1805,0.50,60.00,-1742.30,-1441.52,-300.78
334,1810,0.50,60.00,-1742.28,-1442.08,-300.20
335,1816,0.50,60.00,-1742.26,-1442.53,-299.73
336,1820,0.50,60.00,-1742.25,-1442.89,-299.35
337,1825,0.50,60.00,-1742.24,-1443.18,-299.05
338,1830,0.50,60.00,-1743.20,-1443.41,-299.79
339,1835,0.50,60.00,-1742.02,-1442.62,-299.40
340,1840,0.50,60.00,-1740.10,-1442.96,-297.14
341,1845,0.50,60.00,-1740.52,-1443.24,-297.28
342,1849,0.50,60.00,-1739.88,-1443.46,-296.42
343,1858,0.50,60.00,-1740.34,-1442.66,-297.68
344,1863,0.50,60.00,-1740.71,-1442.99,-297.72
345,1867,0.50,60.00,-1740.03,-1443.26,-296.77
346,1872,0.50,60.00,-1740.46,-1443.48,-296.98
347,1877,0.50,60.00,-1740.81,-1444.62,-296.18
348,1882,0.50,60.00,-1741.08,-1445.54,-295.54
349,1887,0.50,60.00,-1740.33,-1445.30,-295.02
350,1892,0.50,60.00,-1740.70,-1445.11,-295.59
351,1896,0.50,60.00,-1741.00,-1443.98,-297.02
352,1902,0.50,60.00,-1740.26,-1444.05,-296.21
353,1907,0.50,60.00,-1740.64,-1444.11,-296.54
354,1914,0.50,60.00,-1740.95,-1444.15,-296.80
355,1919,0.50,60.00,-1741.20,-1443.21,-297.99
356,1924,0.50,60.00,-1737.49,-1443.44,-294.05
357,1929,0.50,60.00,-1736.48,-1443.62,-292.86
358,1934,0.50,60.00,-1737.62,-1443.76,-293.86
359,1938,0.50,60.00,-1738.53,-1443.88,-294.66
360,1944,0.50,60.00,-1738.29,-1443.97,-294.32
361,1949,0.50,60.00,-1739.07,-1444.04,-295.03
362,1954,0.50,60.00,-1739.69,-1446.05,-293.64
363,1959,0.50,60.00,-1740.19,-1445.71,-294.48
364,1964,0.50,60.00,-1736.68,-1444.46,-292.23
365,1971,0.50,60.00,-1736.81,-1444.43,-292.37
366,1975,0.50,60.00,-1737.88,-1444.41,-293.47
367,1980,0.50,60.00,-1738.74,-1444.40,-294.35
368,1986,0.50,60.00,-1739.43,-1444.39,-295.05
369,1991,0.50,60.00,-1739.01,-1444.38,-294.63
370,1996,0.50,60.00,-1739.64,-1444.37,-295.28
371,2001,0.50,60.00,-1740.15,-1444.36,-295.79
372,2005,0.50,60.00,-1737.63,-1446.31,-291.32
373,2010,0.50,60.00,-1737.56,-1445.91,-291.65
374,2015,0.50,60.00,-1738.49,-1445.60,-292.89
375,2020,0.50,60.00,-1739.23,-1445.35,-293.88
376,2028,0.50,60.00,-1738.84,-1445.14,-293.70
377,2033,0.50,60.00,-1740.49,-1444.98,-295.51
378,2038,0.50,60.00,-1740.83,-1444.85,-295.98
379,2042,0.50,60.00,-1741.10,-1444.75,-296.35
380,2047,0.50,60.00,-1740.34,-1444.67,-295.67
381,2052,0.50,60.00,-1739.73,-1444.60,-295.13
382,2057,0.50,60.00,-1740.22,-1443.57,-296.65
383,2062,0.50,60.00,-1740.62,-1442.75,-297.87
384,2068,0.50,60.00,-1740.93,-1442.09,-298.84
385,2072,0.50,60.00,-1741.18,-1441.56,-299.62
386,2077,0.50,60.00,-1742.36,-1441.14,-301.22
387,2084,0.50,60.00,-1742.33,-1443.73,-298.59
388,2089,0.50,60.00,-1742.30,-1442.88,-299.42
389,2094,0.50,60.00,-1742.28,-1442.19,-300.08
390,2099,0.50,60.00,-1741.28,-1441.64,-299.64
391,2104,0.50,60.00,-1739.51,-1442.18,-297.33
392,2109,0.50,60.00,-1738.09,-1441.64,-296.46
393,2115,0.50,60.00,-1736.96,-1442.18,-294.78
394,2119,0.50,60.00,-1736.05,-1441.63,-294.42
395,2124,0.50,60.00,-1735.33,-1442.17,-293.15
396,2129,0.50,60.00,-1734.74,-1441.63,-293.12
397,2134,0.50,60.00,-1735.26,-1442.17,-293.09
398,2141,0.50,60.00,-1734.69,-1441.63,-293.06
399,2145,0.50,60.00,-1734.24,-1442.17,-292.07
400,2150,0.50,60.00,-1733.87,-1442.60,-291.27
401,2156,0.50,60.00,-1733.58,-1441.97,-291.61
402,2161,0.50,60.00,-1733.35,-1442.45,-290.91
403,2166,0.50,60.00,-1733.17,-1442.82,-290.34
404,2171,0.50,60.00,-1733.02,-1443.13,-289.89
405,2175,0.50,60.00,-1732.90,-1442.39,-290.51
406,2180,0.50,60.00,-1732.80,-1442.78,-290.02
407,2185,0.50,60.00,-1733.70,-1443.09,-290.61
408,2190,0.50,60.00,-1734.42,-1442.36,-292.06
409,2198,0.50,60.00,-1733.05,-1441.78,-291.26
410,2203,0.50,60.00,-1732.92,-1442.29,-290.63
411,2208,0.50,60.00,-1732.82,-1442.70,-290.12
412,2213,0.50,60.00,-1734.69,-1442.05,-292.64
413,2217,0.50,60.00,-1732.29,-1441.53,-290.76
414,2222,0.50,60.00,-1734.27,-1442.09,-292.17
415,2227,0.50,60.00,-1735.85,-1442.54,-293.31
416,2232,0.50,60.00,-1738.10,-1440.95,-297.15
417,2237,0.50,60.00,-1738.91,-1440.65,-298.27
418,2243,0.50,60.00,-1739.57,-1440.41,-299.16
419,2251,0.50,60.00,-1740.09,-1441.19,-298.90
420,2254,0.50,60.00,-1739.53,-1440.85,-298.69
421,2259,0.50,60.00,-1740.07,-1441.54,-298.52
422,2264,0.50,60.00,-1741.47,-1443.08,-298.39
423,2269,0.50,60.00,-1740.63,-1442.35,-298.28
424,2274,0.50,60.00,-1740.94,-1441.77,-299.17
425,2279,0.50,60.00,-1741.19,-1441.31,-299.88
426,2284,0.50,60.00,-1740.42,-1440.94,-299.48
427,2289,0.50,60.00,-1739.79,-1441.62,-298.18
428,2294,0.50,60.00,-1740.27,-1442.16,-298.11
429,2299,0.50,60.00,-1740.66,-1442.60,-298.06
430,2306,0.50,60.00,-1739.99,-1442.94,-297.04
431,2311,0.50,60.00,-1737.50,-1443.22,-294.27
432,2316,0.50,60.00,-1737.46,-1443.45,-294.01
433,2321,0.50,60.00,-1742.31,-1443.62,-298.69
434,2326,0.50,60.00,-1741.31,-1443.77,-297.54
435,2331,0.50,60.00,-1740.51,-1443.88,-296.63
436,2336,0.50,60.00,-1740.84,-1443.97,-296.87
437,2341,0.50,60.00,-1741.11,-1444.04,-297.07
438,2346,0.50,60.00,-1741.33,-1445.08,-296.25
