#, ElapsedTime[ms], Freq[Hz], Duty[%], Pres1[Pa], Pres2[Pa], Pres_diff[Pa]
0,1,1.00,80.00,2752.03,2998.23,-246.20
1,37,1.00,80.00,2750.65,2999.36,-248.72
2,42,1.00,80.00,2750.52,3000.27,-249.75
3,47,1.00,80.00,2751.39,3001.00,-249.61
4,51,1.00,80.00,2752.09,3000.60,-248.51
5,56,1.00,80.00,2751.67,3000.29,-248.62
6,61,1.00,80.00,2752.31,3000.04,-247.72
7,67,1.00,80.00,2752.83,3001.79,-248.96
8,72,1.00,80.00,2753.24,3002.21,-248.97
9,76,1.00,80.00,2753.57,3001.57,-248.00
10,81,1.00,80.00,2753.83,3000.09,-246.26
11,88,1.00,80.00,2754.04,2999.87,-245.83
12,93,1.00,80.00,2753.23,2998.73,-245.49
13,98,1.00,80.00,2755.52,2997.81,-242.29
14,103,1.00,80.00,2754.41,2995.12,-240.71
15,109,1.00,80.00,2754.51,2994.93,-240.42
16,114,1.00,80.00,2753.61,2994.77,-241.16
17,118,1.00,80.00,2753.86,2995.62,-241.76
18,123,1.00,80.00,2754.07,2994.35,-240.28
19,128,1.00,80.00,2753.25,2994.31,-241.05
20,133,1.00,80.00,2752.60,2995.25,-242.65
21,138,1.00,80.00,2753.06,2996.00,-242.95
22,143,1.00,80.00,2752.45,2994.66,-242.21
23,150,1.00,80.00,2752.93,2994.55,-241.62
24,156,1.00,80.00,2753.32,2995.45,-242.12
25,160,1.00,80.00,2754.61,2995.19,-240.57
26,165,1.00,80.00,2754.67,2994.98,-240.31
27,170,1.00,80.00,2754.71,2994.81,-240.10
28,175,1.00,80.00,2753.77,2995.65,-241.88
29,180,1.00,80.00,2753.01,2996.33,-243.31
30,185,1.00,80.00,2752.41,2995.89,-243.48
31,190,1.00,80.00,2751.93,2995.54,-243.61
32,195,1.00,80.00,2753.50,2996.24,-242.74
33,200,1.00,80.00,2752.80,2994.84,-242.04
34,205,1.00,80.00,2753.21,2995.68,-242.46
35,212,1.00,80.00,2757.45,2996.35,-238.89
36,217,1.00,80.00,2756.94,2996.88,-239.94
37,222,1.00,80.00,2756.53,2998.29,-241.76
38,227,1.00,80.00,2756.20,2999.41,-243.21
39,232,1.00,80.00,2754.96,3000.31,-245.35
40,238,1.00,80.00,2754.94,3001.03,-246.08
41,242,1.00,80.00,2754.93,3000.63,-245.70
42,247,1.00,80.00,2754.92,3000.31,-245.39
43,252,1.00,80.00,2754.91,3001.03,-246.11
44,257,1.00,80.00,2754.91,3001.60,-246.69
45,262,1.00,80.00,2753.93,3001.09,-247.16
46,267,1.00,80.00,2754.12,3000.67,-246.56
47,274,1.00,80.00,2754.27,3001.32,-247.05
48,280,1.00,80.00,2754.39,3000.86,-246.47
49,284,1.00,80.00,2753.51,3000.49,-246.98
50,289,1.00,80.00,2752.81,3001.18,-248.36
51,294,1.00,80.00,2752.25,3001.72,-249.47
52,299,1.00,80.00,2752.78,3001.18,-248.41
53,304,1.00,80.00,2753.20,3000.75,-247.55
54,309,1.00,80.00,2753.53,3000.41,-246.87
55,313,1.00,80.00,2753.80,3001.11,-247.30
56,318,1.00,80.00,2754.02,2999.71,-245.69
57,324,1.00,80.00,2754.19,2997.62,-243.43
58,329,1.00,80.00,2754.33,2995.95,-241.62
59,336,1.00,80.00,2754.44,2994.61,-240.17
60,341,1.00,80.00,2754.53,2993.54,-239.01
61,346,1.00,80.00,2754.60,2992.68,-238.08
62,351,1.00,80.00,2754.66,2992.98,-238.32
63,356,1.00,80.00,2754.70,2993.21,-238.51
64,360,1.00,80.00,2753.76,2992.42,-238.66
65,366,1.00,80.00,2753.01,2991.79,-238.78
66,371,1.00,80.00,2752.41,2991.28,-238.87
67,376,1.00,80.00,2751.93,2990.88,-238.95
68,381,1.00,80.00,2756.42,2990.55,-234.13
69,386,1.00,80.00,2755.14,2990.29,-235.15
70,390,1.00,80.00,2754.11,2990.09,-235.98
71,398,1.00,80.00,2753.29,2990.90,-237.61
72,403,1.00,80.00,2752.63,2990.57,-237.94
73,408,1.00,80.00,2752.11,2991.28,-239.18
74,413,1.00,80.00,2751.68,2991.86,-240.17
75,418,1.00,80.00,2751.35,2992.31,-240.96
76,423,1.00,80.00,2751.08,2990.72,-239.65
77,428,1.00,80.00,2747.93,2990.43,-242.50
78,433,1.00,80.00,2748.35,2990.20,-241.85
79,437,1.00,80.00,2748.68,2992.94,-244.26
80,442,1.00,80.00,2748.94,2994.16,-245.21
81,447,1.00,80.00,2749.15,2995.13,-245.98
82,453,1.00,80.00,2749.32,2995.91,-246.59
83,460,1.00,80.00,2750.43,2997.51,-247.07
84,465,1.00,80.00,2750.35,2997.81,-247.46
85,470,1.00,80.00,2753.21,2998.05,-244.85
86,475,1.00,80.00,2752.57,2998.25,-245.68
87,479,1.00,80.00,2752.05,2998.40,-246.35
88,484,1.00,80.00,2751.64,2996.57,-244.93
89,489,1.00,80.00,2751.31,2997.06,-245.75
90,495,1.00,80.00,2753.98,2998.43,-244.45
91,500,1.00,80.00,2753.18,2998.55,-245.37
92,505,1.00,80.00,2752.55,2998.65,-246.10
93,510,1.00,80.00,2752.04,2998.72,-246.68
94,546,1.00,80.00,2752.61,2998.78,-246.17
95,553,1.00,80.00,2752.09,2995.90,-243.81
96,558,1.00,80.00,2751.67,2996.52,-244.86
97,563,1.00,80.00,2749.38,2995.07,-245.69
98,567,1.00,80.00,2749.51,2994.89,-245.38
99,572,1.00,80.00,2749.60,2994.74,-245.13
100,578,1.00,80.00,2749.68,2994.62,-244.93
101,583,1.00,80.00,2749.75,2993.55,-243.80
102,588,1.00,80.00,2749.80,2992.69,-242.89
103,593,1.00,80.00,2749.84,2992.98,-243.14
104,598,1.00,80.00,2749.87,2993.21,-243.34
105,602,1.00,80.00,2749.90,2992.42,-242.52
106,610,1.00,80.00,2750.89,2992.76,-241.87
107,615,1.00,80.00,2750.71,2994.02,-243.30
108,621,1.00,80.00,2750.57,2993.06,-242.49
109,625,1.00,80.00,2750.46,2992.30,-241.85
110,630,1.00,80.00,2750.37,2992.67,-242.30
111,635,1.00,80.00,2750.29,2992.96,-242.67
112,640,1.00,80.00,2750.23,2993.20,-242.97
113,645,1.00,80.00,2748.23,2993.39,-245.15
114,649,1.00,80.00,2749.56,2993.54,-243.97
115,655,1.00,80.00,2749.65,2993.66,-244.01
116,659,1.00,80.00,2749.72,2993.76,-244.03
117,665,1.00,80.00,2749.78,2992.86,-243.08
118,673,1.00,80.00,2749.82,2993.11,-243.29
119,677,1.00,80.00,2749.86,2993.32,-243.46
120,682,1.00,80.00,2749.89,2992.51,-242.62
121,687,1.00,80.00,2749.91,2992.83,-242.92
122,692,1.00,80.00,2749.93,2993.09,-243.17
123,697,1.00,80.00,2750.92,2993.30,-242.39
124,702,1.00,80.00,2751.71,2992.49,-240.78
125,707,1.00,80.00,2751.37,2992.82,-241.45
126,712,1.00,80.00,2746.21,2993.09,-246.87
127,717,1.00,80.00,2746.97,2992.32,-245.35
128,722,1.00,80.00,2747.58,2990.73,-243.16
129,727,1.00,80.00,2749.04,2991.41,-242.38
130,734,1.00,80.00,2750.21,2990.01,-239.80
131,739,1.00,80.00,2754.07,2991.81,-237.74
132,744,1.00,80.00,2754.23,2993.25,-239.02
133,750,1.00,80.00,2755.34,2992.45,-237.11
134,755,1.00,80.00,2755.25,2992.79,-237.54
135,759,1.00,80.00,2755.18,2993.06,-237.89
136,764,1.00,80.00,2755.12,2993.28,-238.16
137,769,1.00,80.00,2755.07,2994.43,-239.36
138,774,1.00,80.00,2756.99,2994.37,-237.38
139,779,1.00,80.00,2756.57,2994.32,-237.76
140,784,1.00,80.00,2756.23,2993.31,-237.08
141,792,1.00,80.00,2755.96,2994.45,-238.49
142,797,1.00,80.00,2755.74,2994.39,-238.65
143,802,1.00,80.00,2755.57,2994.34,-238.77
144,806,1.00,80.00,2754.46,2995.28,-240.82
145,811,1.00,80.00,2754.54,2997.98,-243.44
146,816,1.00,80.00,2754.61,2998.19,-243.58
147,821,1.00,80.00,2754.67,2997.38,-242.71
148,826,1.00,80.00,2754.71,2997.71,-243.00
149,831,1.00,80.00,2754.74,2996.02,-241.27
150,836,1.00,80.00,2754.77,2996.62,-241.85
151,841,1.00,80.00,2753.82,2996.12,-242.31
152,846,1.00,80.00,2754.03,2996.70,-242.67
153,853,1.00,80.00,2753.22,2997.17,-243.94
154,858,1.00,80.00,2752.58,2997.54,-244.96
155,863,1.00,80.00,2752.06,2996.86,-244.80
156,868,1.00,80.00,2751.65,2996.32,-244.66
157,873,1.00,80.00,2752.30,2996.86,-244.56
158,878,1.00,80.00,2751.84,2997.29,-245.45
159,883,1.00,80.00,2751.47,2996.66,-245.19
160,888,1.00,80.00,2751.18,2996.16,-244.98
161,893,1.00,80.00,2750.94,2991.85,-240.91
162,898,1.00,80.00,2749.78,2993.28,-243.51
163,903,1.00,80.00,2749.82,2991.50,-241.68
164,911,1.00,80.00,2749.86,2992.03,-242.17
165,915,1.00,80.00,2752.82,2993.43,-240.61
166,921,1.00,80.00,2751.28,2993.57,-242.29
167,925,1.00,80.00,2751.02,2994.66,-243.64
168,930,1.00,80.00,2750.82,2995.53,-244.72
169,935,1.00,80.00,2750.65,2996.23,-245.58
170,940,1.00,80.00,2750.52,2995.81,-245.29
171,945,1.00,80.00,2750.42,2996.46,-246.04
172,950,1.00,80.00,2750.33,2996.97,-246.63
173,954,1.00,80.00,2750.27,2997.38,-247.11
174,959,1.00,80.00,2749.24,2997.71,-248.47
175,965,1.00,80.00,2749.39,2997.97,-248.58
176,973,1.00,80.00,2750.49,2998.18,-247.69
177,977,1.00,80.00,2751.37,2998.35,-246.98
178,982,1.00,80.00,2752.07,2998.48,-246.41
179,987,1.00,80.00,2752.63,2998.59,-245.96
180,992,1.00,80.00,2753.08,2998.68,-245.60
181,997,1.00,80.00,2753.44,2998.75,-245.30
182,1002,1.00,80.00,2752.75,2998.80,-246.05
183,1007,1.00,80.00,2753.18,2998.85,-245.67
184,1012,1.00,80.00,2753.52,2997.91,-244.39
185,1017,1.00,80.00,2753.79,2998.13,-244.34
186,1022,1.00,80.00,2754.01,2998.31,-244.30
187,1027,1.00,80.00,2754.19,2998.45,-244.27
188,1035,1.00,80.00,2754.33,2998.57,-244.24
189,1039,1.00,80.00,2754.44,2998.66,-244.22
190,1044,1.00,80.00,2753.55,2998.73,-245.18
191,1050,1.00,80.00,2752.84,2997.81,-244.97
192,1055,1.00,80.00,2753.25,2996.10,-242.85
193,1060,1.00,80.00,2753.58,2995.71,-242.13
194,1065,1.00,80.00,2753.84,2995.40,-241.56
195,1069,1.00,80.00,2754.05,2995.14,-241.10
196,1074,1.00,80.00,2754.21,2992.01,-237.80
197,1079,1.00,80.00,2754.35,2992.44,-238.09
198,1084,1.00,80.00,2754.45,2991.80,-237.35
199,1093,1.00,80.00,2753.56,2992.27,-238.71
200,1097,1.00,80.00,2752.85,2995.57,-242.72
201,1102,1.00,80.00,2752.28,2995.29,-243.01
202,1107,1.00,80.00,2751.82,2996.03,-244.21
203,1112,1.00,80.00,2751.46,2995.66,-244.20
204,1117,1.00,80.00,2751.17,2996.33,-245.16
205,1122,1.00,80.00,2750.93,2994.92,-243.98
206,1126,1.00,80.00,2750.75,2994.76,-244.01
207,1131,1.00,80.00,2750.60,2994.64,-244.04
208,1137,1.00,80.00,2750.48,2997.47,-246.99
209,1142,1.00,80.00,2750.38,2996.80,-246.42
210,1149,1.00,80.00,2750.31,2996.27,-245.96
211,1154,1.00,80.00,2751.22,2996.82,-245.60
212,1159,1.00,80.00,2750.98,2995.31,-244.33
213,1164,1.00,80.00,2750.78,2997.03,-246.25
214,1169,1.00,80.00,2750.63,2997.43,-246.80
215,1174,1.00,80.00,2750.50,2997.75,-247.25
216,1179,1.00,80.00,2750.40,2998.00,-247.60
217,1184,1.00,80.00,2750.32,2998.21,-247.89
218,1189,1.00,80.00,2750.26,2998.37,-248.11
219,1194,1.00,80.00,2750.21,2998.50,-248.30
220,1199,1.00,80.00,2750.16,2998.61,-248.44
221,1204,1.00,80.00,2750.13,2998.69,-248.56
222,1211,1.00,80.00,2751.08,2999.73,-248.65
223,1216,1.00,80.00,2751.84,2999.59,-247.75
224,1222,1.00,80.00,2752.45,2999.48,-247.03
225,1226,1.00,80.00,2751.96,2999.39,-247.43
226,1231,1.00,80.00,2753.52,2998.34,-244.82
227,1236,1.00,80.00,2753.79,3000.43,-246.63
228,1241,1.00,80.00,2754.01,3000.15,-246.14
229,1246,1.00,80.00,2754.19,3001.88,-247.69
230,1250,1.00,80.00,2754.33,3001.31,-246.98
231,1255,1.00,80.00,2754.44,3000.85,-246.41
232,1261,1.00,80.00,2754.53,3000.48,-245.96
233,1268,1.00,80.00,2755.57,3000.19,-244.62
234,1273,1.00,80.00,2755.44,3000.93,-245.50
235,1278,1.00,80.00,2751.42,3000.55,-249.13
236,1283,1.00,80.00,2752.11,3000.25,-248.14
237,1288,1.00,80.00,2752.67,3000.00,-247.34
238,1293,1.00,80.00,2753.11,2999.81,-246.70
239,1297,1.00,80.00,2753.46,2996.72,-243.26
240,1302,1.00,80.00,2753.75,2996.20,-242.46
241,1308,1.00,80.00,2754.95,2996.77,-241.82
242,1313,1.00,80.00,2753.96,2997.22,-243.26
243,1318,1.00,80.00,2754.15,2997.58,-243.43
244,1326,1.00,80.00,2754.29,2996.89,-242.60
245,1330,1.00,80.00,2756.36,2996.34,-239.98
246,1335,1.00,80.00,2756.07,2996.88,-240.81
247,1340,1.00,80.00,2756.81,2996.33,-239.52
248,1346,1.00,80.00,2755.45,2996.87,-241.42
249,1351,1.00,80.00,2754.36,2997.30,-242.94
250,1355,1.00,80.00,2753.49,2995.69,-242.21
251,1360,1.00,80.00,2752.79,2995.38,-242.59
252,1365,1.00,80.00,2752.23,2996.11,-243.88
253,1370,1.00,80.00,2751.78,2995.72,-243.93
254,1375,1.00,80.00,2751.43,2996.38,-244.95
255,1380,1.00,80.00,2751.14,2995.93,-244.79
256,1387,1.00,80.00,2751.89,2996.55,-244.66
257,1393,1.00,80.00,2751.51,2997.04,-245.53
258,1398,1.00,80.00,2751.21,2997.44,-246.23
259,1402,1.00,80.00,2750.97,2996.78,-245.81
260,1407,1.00,80.00,2750.77,2997.23,-246.45
261,1412,1.00,80.00,2750.62,2997.59,-246.97
262,1417,1.00,80.00,2750.50,2997.87,-247.38
263,1422,1.00,80.00,2750.40,2997.13,-246.73
264,1427,1.00,80.00,2750.32,2997.51,-247.19
265,1433,1.00,80.00,2750.25,2997.81,-247.56
266,1437,1.00,80.00,2750.20,2998.05,-247.85
267,1445,1.00,80.00,2751.14,2998.25,-247.11
268,1450,1.00,80.00,2751.89,2998.40,-246.51
269,1454,1.00,80.00,2752.49,2998.53,-246.04
270,1459,1.00,80.00,2752.97,2998.63,-245.66
271,1464,1.00,80.00,2753.35,2998.71,-245.36
272,1469,1.00,80.00,2753.66,2998.77,-245.11
273,1475,1.00,80.00,2753.90,2998.82,-244.92
274,1479,1.00,80.00,2753.12,2999.84,-246.72
275,1484,1.00,80.00,2753.47,2999.67,-246.20
276,1489,1.00,80.00,2753.76,2996.61,-242.86
277,1494,1.00,80.00,2758.86,2997.10,-238.23
278,1499,1.00,80.00,2758.07,2997.48,-239.41
279,1506,1.00,80.00,2758.41,2996.81,-238.41
280,1511,1.00,80.00,2757.70,2997.26,-239.55
281,1517,1.00,80.00,2757.14,2999.56,-242.42
282,1522,1.00,80.00,2755.71,2998.48,-242.77
283,1526,1.00,80.00,2755.55,2998.59,-243.04
284,1531,1.00,80.00,2754.44,2997.70,-243.26
285,1536,1.00,80.00,2754.53,2996.99,-242.46
286,1572,1.00,80.00,2752.64,2996.42,-243.77
287,1577,1.00,80.00,2752.12,2995.96,-243.85
288,1582,1.00,80.00,2751.69,2994.62,-242.93
289,1587,1.00,80.00,2751.35,2994.53,-243.17
290,1594,1.00,80.00,2754.01,2995.42,-241.41
291,1599,1.00,80.00,2753.21,2997.12,-243.91
292,1605,1.00,80.00,2752.57,2996.53,-243.96
293,1610,1.00,80.00,2752.05,2995.07,-243.02
294,1614,1.00,80.00,2751.64,2994.89,-243.24
295,1619,1.00,80.00,2751.31,2994.74,-243.42
296,1624,1.00,80.00,2751.05,2994.62,-243.57
297,1629,1.00,80.00,2750.84,2994.52,-243.68
298,1634,1.00,80.00,2751.65,2994.45,-242.80
299,1639,1.00,80.00,2751.32,2993.41,-242.09
300,1643,1.00,80.00,2751.06,2993.55,-242.50
301,1652,1.00,80.00,2750.84,2994.65,-243.80
302,1657,1.00,80.00,2750.68,2996.50,-245.82
303,1661,1.00,80.00,2750.54,2997.00,-246.46
304,1666,1.00,80.00,2750.43,2997.41,-246.98
305,1671,1.00,80.00,2748.39,2997.73,-249.34
306,1676,1.00,80.00,2748.71,2997.99,-249.28
307,1681,1.00,80.00,2751.90,2997.22,-245.32
308,1686,1.00,80.00,2752.50,2997.58,-245.08
309,1692,1.00,80.00,2752.97,2997.87,-244.89
310,1696,1.00,80.00,2753.36,2998.10,-244.74
311,1701,1.00,80.00,2753.66,2997.31,-243.65
312,1706,1.00,80.00,2753.91,2997.65,-243.75
313,1714,1.00,80.00,2754.10,2997.93,-243.82
314,1719,1.00,80.00,2754.26,2998.15,-243.89
315,1723,1.00,80.00,2754.38,3000.27,-245.89
316,1728,1.00,80.00,2754.48,3000.02,-245.54
317,1734,1.00,80.00,2754.56,2999.82,-245.26
318,1739,1.00,80.00,2754.63,2998.69,-244.06
319,1744,1.00,80.00,2754.68,2997.78,-243.10
320,1749,1.00,80.00,2754.72,2998.03,-243.31
321,1753,1.00,80.00,2754.75,2998.23,-243.47
322,1758,1.00,80.00,2754.78,2998.39,-243.61
323,1763,1.00,80.00,2755.78,2997.54,-241.76
324,1771,1.00,80.00,2755.60,2999.79,-244.19
325,1776,1.00,80.00,2755.45,2999.63,-244.18
326,1781,1.00,80.00,2755.34,2999.51,-244.17
327,1786,1.00,80.00,2755.25,2999.41,-244.17
328,1791,1.00,80.00,2755.18,3000.31,-245.14
329,1796,1.00,80.00,2755.12,3000.06,-244.94
330,1801,1.00,80.00,2755.07,2998.87,-243.80
331,1805,1.00,80.00,2754.06,2995.97,-241.92
332,1810,1.00,80.00,2752.27,2996.58,-244.31
333,1816,1.00,80.00,2751.81,2996.09,-244.28
334,1821,1.00,80.00,2751.45,2995.70,-244.25
335,1826,1.00,80.00,2751.16,2996.37,-245.21
336,1833,1.00,80.00,2751.91,2996.90,-244.99
337,1838,1.00,80.00,2751.52,2997.32,-245.80
338,1843,1.00,80.00,2751.22,2996.69,-245.47
339,1848,1.00,80.00,2750.98,2995.20,-244.23
340,1852,1.00,80.00,2750.78,2996.94,-246.16
341,1858,1.00,80.00,2750.62,2997.36,-246.73
342,1863,1.00,80.00,2751.48,2997.69,-246.22
343,1868,1.00,80.00,2751.18,2997.96,-246.78
344,1873,1.00,80.00,2750.94,2998.17,-247.23
345,1878,1.00,80.00,2750.76,2998.34,-247.59
346,1883,1.00,80.00,2750.60,2997.50,-246.90
347,1890,1.00,80.00,2750.48,2996.83,-246.35
348,1895,1.00,80.00,2750.39,2997.27,-246.88
349,1901,1.00,80.00,2750.31,2996.64,-246.33
350,1905,1.00,80.00,2750.25,2997.12,-246.87
351,1910,1.00,80.00,2751.17,2996.52,-245.35
352,1915,1.00,80.00,2750.94,2995.07,-244.13
353,1920,1.00,80.00,2750.75,2994.88,-244.13
354,1925,1.00,80.00,2751.58,2995.71,-244.13
355,1930,1.00,80.00,2752.24,2995.40,-243.16
356,1934,1.00,80.00,2752.77,2996.12,-243.35
357,1940,1.00,80.00,2753.19,2995.73,-242.54
358,1948,1.00,80.00,2753.53,2996.39,-242.86
359,1953,1.00,80.00,2755.75,2996.91,-241.16
360,1958,1.00,80.00,2755.58,2996.36,-240.78
361,1962,1.00,80.00,2755.44,2995.92,-240.48
362,1967,1.00,80.00,2755.33,2995.56,-240.23
363,1972,1.00,80.00,2755.24,2995.28,-240.04
364,1977,1.00,80.00,2755.17,2995.05,-239.88
365,1982,1.00,80.00,2754.13,2994.87,-240.73
366,1987,1.00,80.00,2754.28,2994.72,-240.44
367,1992,1.00,80.00,2754.40,2994.61,-240.20
368,1997,1.00,80.00,2754.50,2994.51,-240.01
369,2002,1.00,80.00,2754.58,2994.44,-239.86
370,2009,1.00,80.00,2754.64,2995.36,-240.72
371,2014,1.00,80.00,2754.69,2996.09,-241.40
372,2019,1.00,80.00,2753.75,2996.68,-242.93
373,2024,1.00,80.00,2753.98,2997.15,-243.17
374,2030,1.00,80.00,2754.16,2997.52,-243.36
375,2034,1.00,80.00,2754.30,2997.82,-243.52
376,2040,1.00,80.00,2754.42,2998.06,-243.64
377,2044,1.00,80.00,2754.51,2998.25,-243.74
378,2049,1.00,80.00,2753.61,2998.41,-244.80
379,2054,1.00,80.00,2752.89,2998.53,-245.64
380,2059,1.00,80.00,2752.31,2998.63,-246.32
381,2066,1.00,80.00,2752.82,2998.71,-245.88
382,2072,1.00,80.00,2752.26,2998.77,-246.51
383,2077,1.00,80.00,2751.81,2995.89,-244.08
384,2081,1.00,80.00,2752.42,2996.52,-244.10
385,2087,1.00,80.00,2751.94,2997.02,-245.08
386,2091,1.00,80.00,2751.55,2997.42,-245.87
387,2096,1.00,80.00,2751.24,2999.69,-248.45
388,2101,1.00,80.00,2750.99,2999.56,-248.57
389,2106,1.00,80.00,2752.75,2999.45,-246.71
390,2111,1.00,80.00,2752.20,3001.32,-249.12
391,2116,1.00,80.00,2751.76,3000.86,-249.10
392,2124,1.00,80.00,2752.38,3000.49,-248.11
393,2129,1.00,80.00,2751.91,2999.22,-247.32
394,2134,1.00,80.00,2749.57,2998.21,-248.63
395,2138,1.00,80.00,2749.66,2997.39,-247.74
396,2143,1.00,80.00,2749.73,2996.74,-247.02
397,2148,1.00,80.00,2750.76,2996.22,-245.46
398,2153,1.00,80.00,2750.61,2995.81,-245.20
399,2159,1.00,80.00,2751.46,2995.47,-244.01
400,2164,1.00,80.00,2751.17,2995.21,-244.04
401,2169,1.00,80.00,2751.91,2997.92,-246.01
402,2173,1.00,80.00,2751.53,2997.17,-245.64
403,2178,1.00,80.00,2751.22,2996.56,-245.34
404,2186,1.00,80.00,2753.91,2996.08,-242.17
405,2190,1.00,80.00,2753.13,2993.74,-240.61
406,2195,1.00,80.00,2752.50,2993.82,-241.32
407,2201,1.00,80.00,2752.98,2993.88,-240.90
408,2206,1.00,80.00,2753.36,2993.93,-240.58
409,2210,1.00,80.00,2753.66,2993.98,-240.31
410,2216,1.00,80.00,2752.93,2994.01,-241.08
411,2220,1.00,80.00,2753.32,2993.06,-239.74
412,2225,1.00,80.00,2752.66,2993.27,-240.62
413,2230,1.00,80.00,2752.13,2994.42,-242.30
414,2235,1.00,80.00,2752.68,2994.37,-241.69
415,2243,1.00,80.00,2753.12,2993.35,-240.23
416,2248,1.00,80.00,2753.47,2994.48,-241.01
417,2253,1.00,80.00,2754.73,2995.39,-240.66
418,2258,1.00,80.00,2753.78,2996.12,-242.33
419,2262,1.00,80.00,2754.00,2996.70,-242.69
420,2267,1.00,80.00,2754.18,2997.16,-242.98
421,2272,1.00,80.00,2753.34,2997.54,-244.19
422,2277,1.00,80.00,2752.67,2997.83,-245.16
423,2282,1.00,80.00,2753.12,2998.07,-244.95
424,2288,1.00,80.00,2753.47,3000.21,-246.74
425,2292,1.00,80.00,2753.75,3000.95,-247.20
426,2297,1.00,80.00,2753.00,3001.54,-248.54
427,2305,1.00,80.00,2753.38,3002.02,-248.64
428,2309,1.00,80.00,2753.68,3001.42,-247.74
429,2314,1.00,80.00,2752.94,3001.92,-248.97
430,2319,1.00,80.00,2753.33,3001.34,-248.01
431,2324,1.00,80.00,2753.64,3000.87,-247.23
432,2330,1.00,80.00,2753.89,3000.50,-246.61
433,2335,1.00,80.00,2753.11,3000.21,-247.10
434,2339,1.00,80.00,2752.49,2999.97,-247.48
435,2344,1.00,80.00,2752.97,2999.78,-246.81
436,2349,1.00,80.00,2752.37,2999.63,-247.26
437,2354,1.00,80.00,2751.90,2999.51,-247.61
438,2361,1.00,80.00,2751.52,2999.41,-247.89
439,2366,1.00,80.00,2751.22,2999.33,-248.12
440,2372,1.00,80.00,2750.97,2998.30,-247.32
441,2377,1.00,80.00,2750.78,2996.49,-245.71
442,2382,1.00,80.00,2747.69,2995.04,-247.35
443,2387,1.00,80.00,2749.13,2993.89,-244.75
444,2391,1.00,80.00,2749.30,2995.89,-246.58
445,2396,1.00,80.00,2749.44,2995.54,-246.10
446,2401,1.00,80.00,2749.56,2994.28,-244.73
447,2406,1.00,80.00,2749.64,2994.25,-244.61
448,2411,1.00,80.00,2749.72,2994.23,-244.52
449,2419,1.00,80.00,2750.75,2994.21,-243.46
450,2424,1.00,80.00,2750.60,2994.20,-243.60
451,2429,1.00,80.00,2750.48,2994.19,-243.71
452,2434,1.00,80.00,2750.38,2994.18,-243.79
453,2439,1.00,80.00,2750.31,2993.19,-242.89
454,2444,1.00,80.00,2751.22,2993.38,-242.16
455,2448,1.00,80.00,2750.98,2993.53,-242.56
456,2453,1.00,80.00,2751.76,2994.63,-242.87
457,2459,1.00,80.00,2751.41,2994.53,-243.13
458,2464,1.00,80.00,2751.13,2994.46,-243.33
