#, ElapsedTime[ms], Freq[Hz], Duty[%], Pres1[Pa], Pres2[Pa], Pres_diff[Pa]
0,0,1.00,65.00,1350.65,1600.59,-249.94
1,36,1.00,65.00,1349.27,1600.00,-250.73
2,41,1.00,65.00,1349.14,1600.51,-251.36
3,45,1.00,65.00,1349.04,1599.94,-250.90
4,50,1.00,65.00,1347.98,1599.48,-251.50
5,55,1.00,65.00,1347.14,1599.12,-251.98
6,60,1.00,65.00,1347.44,1598.82,-251.39
7,65,1.00,65.00,1347.67,1598.59,-250.92
8,70,1.00,65.00,1346.89,1597.43,-250.54
9,76,1.00,65.00,1349.19,1597.47,-248.28
10,80,1.00,65.00,1348.10,1596.53,-248.43
11,98,1.00,65.00,1348.21,1596.76,-248.55
12,103,1.00,65.00,1348.29,1595.96,-247.67
13,108,1.00,65.00,1348.36,1597.28,-248.91
14,113,1.00,65.00,1347.44,1597.35,-249.91
15,117,1.00,65.00,1346.70,1598.39,-251.69
16,123,1.00,65.00,1347.09,1599.22,-252.13
17,128,1.00,65.00,1347.40,1599.88,-252.49
18,133,1.00,65.00,1346.67,1600.41,-253.75
19,138,1.00,65.00,1346.08,1600.84,-254.76
20,142,1.00,65.00,1343.66,1601.18,-257.52
21,148,1.00,65.00,1343.68,1601.45,-257.77
22,152,1.00,65.00,1343.70,1601.67,-257.97
23,159,1.00,65.00,1343.71,1601.84,-258.14
24,165,1.00,65.00,1344.69,1601.98,-257.29
25,170,1.00,65.00,1345.48,1602.09,-256.61
26,175,1.00,65.00,1345.13,1602.18,-257.05
27,180,1.00,65.00,1345.83,1602.25,-256.42
28,185,1.00,65.00,1345.42,1602.31,-256.89
29,189,1.00,65.00,1345.08,1602.36,-257.27
30,194,1.00,65.00,1344.82,1602.39,-257.58
31,199,1.00,65.00,1344.60,1601.45,-256.84
32,205,1.00,65.00,1345.41,1602.64,-257.23
33,210,1.00,65.00,1348.01,1602.62,-254.61
34,215,1.00,65.00,1347.16,1602.60,-255.45
35,222,1.00,65.00,1349.40,1602.59,-253.19
36,227,1.00,65.00,1349.25,1601.60,-252.35
37,232,1.00,65.00,1349.13,1601.79,-252.66
38,236,1.00,65.00,1348.05,1601.94,-253.89
39,241,1.00,65.00,1347.19,1602.06,-254.87
40,247,1.00,65.00,1347.48,1602.16,-254.68
41,252,1.00,65.00,1347.71,1602.23,-254.52
42,257,1.00,65.00,1347.89,1602.29,-254.40
43,262,1.00,65.00,1348.04,1602.34,-254.30
44,267,1.00,65.00,1348.16,1602.38,-254.22
45,271,1.00,65.00,1348.26,1602.41,-254.16
46,276,1.00,65.00,1348.33,1602.44,-254.11
47,283,1.00,65.00,1349.37,1602.46,-253.09
48,289,1.00,65.00,1349.22,1602.47,-253.25
49,294,1.00,65.00,1349.10,1602.49,-253.38
50,299,1.00,65.00,1349.01,1602.50,-253.49
51,304,1.00,65.00,1348.93,1602.51,-253.57
52,309,1.00,65.00,1348.87,1602.51,-253.64
53,313,1.00,65.00,1348.83,1602.52,-253.69
54,318,1.00,65.00,1348.79,1602.52,-253.74
55,323,1.00,65.00,1348.76,1602.53,-253.77
56,328,1.00,65.00,1348.73,1602.53,-253.80
57,334,1.00,65.00,1348.71,1602.53,-253.82
58,339,1.00,65.00,1348.70,1602.53,-253.84
59,346,1.00,65.00,1348.68,1602.53,-253.85
60,351,1.00,65.00,1348.67,1597.65,-248.98
61,356,1.00,65.00,1347.69,1598.63,-250.94
62,361,1.00,65.00,1348.85,1599.41,-250.56
63,365,1.00,65.00,1350.76,1600.04,-249.27
64,370,1.00,65.00,1350.34,1600.54,-250.20
65,376,1.00,65.00,1350.00,1600.94,-250.94
66,381,1.00,65.00,1349.72,1600.28,-250.56
67,386,1.00,65.00,1349.51,1600.73,-251.23
68,391,1.00,65.00,1349.33,1602.07,-252.74
69,395,1.00,65.00,1349.19,1602.16,-252.97
70,400,1.00,65.00,1349.08,1602.24,-253.16
71,407,1.00,65.00,1348.99,1602.30,-253.31
72,412,1.00,65.00,1350.87,1602.35,-251.48
73,418,1.00,65.00,1350.42,1603.36,-252.94
74,423,1.00,65.00,1351.04,1603.20,-252.16
75,428,1.00,65.00,1350.56,1603.07,-252.51
76,433,1.00,65.00,1355.06,1602.96,-247.90
77,437,1.00,65.00,1353.77,1602.88,-249.10
78,442,1.00,65.00,1353.72,1602.81,-249.09
79,447,1.00,65.00,1352.70,1602.76,-250.05
80,452,1.00,65.00,1351.89,1602.71,-250.82
81,457,1.00,65.00,1350.26,1602.68,-252.42
82,463,1.00,65.00,1349.94,1602.65,-252.71
83,470,1.00,65.00,1349.68,1602.63,-252.95
84,475,1.00,65.00,1349.47,1602.61,-253.14
85,480,1.00,65.00,1349.30,1601.62,-252.32
86,484,1.00,65.00,1350.14,1597.90,-247.75
87,489,1.00,65.00,1349.84,1597.85,-248.01
88,494,1.00,65.00,1349.60,1597.81,-248.21
89,499,1.00,65.00,1349.41,1597.78,-248.37
90,505,1.00,65.00,1348.27,1597.75,-249.48
91,510,1.00,65.00,1347.37,1597.74,-250.37
92,546,1.00,65.00,1346.65,1597.72,-251.07
93,551,1.00,65.00,1346.07,1597.71,-251.64
94,559,1.00,65.00,1345.60,1597.70,-252.09
95,563,1.00,65.00,1346.21,1597.69,-251.48
96,568,1.00,65.00,1345.72,1598.66,-252.94
97,572,1.00,65.00,1345.32,1598.46,-253.13
98,577,1.00,65.00,1345.01,1599.27,-254.27
99,582,1.00,65.00,1345.73,1596.02,-250.29
100,588,1.00,65.00,1345.34,1596.35,-251.01
101,593,1.00,65.00,1345.02,1596.61,-251.59
102,598,1.00,65.00,1340.86,1596.82,-255.96
103,602,1.00,65.00,1342.41,1597.96,-255.55
104,607,1.00,65.00,1342.68,1598.88,-256.20
105,612,1.00,65.00,1342.90,1602.54,-259.65
106,619,1.00,65.00,1343.07,1602.54,-259.47
107,624,1.00,65.00,1343.20,1602.54,-259.34
108,629,1.00,65.00,1343.31,1602.54,-259.23
109,635,1.00,65.00,1344.38,1597.66,-253.28
110,640,1.00,65.00,1344.25,1598.63,-254.38
111,645,1.00,65.00,1344.15,1599.41,-255.26
112,649,1.00,65.00,1345.05,1600.04,-254.99
113,654,1.00,65.00,1340.88,1600.54,-259.66
114,659,1.00,65.00,1342.43,1600.94,-258.51
115,664,1.00,65.00,1343.67,1601.26,-257.59
116,669,1.00,65.00,1344.66,1601.52,-256.85
117,675,1.00,65.00,1345.46,1601.72,-256.26
118,682,1.00,65.00,1346.09,1601.88,-255.79
119,687,1.00,65.00,1342.69,1602.02,-259.32
120,691,1.00,65.00,1343.88,1602.12,-258.24
121,697,1.00,65.00,1343.86,1602.20,-258.35
122,701,1.00,65.00,1344.81,1602.27,-257.46
123,706,1.00,65.00,1345.58,1602.32,-256.75
124,711,1.00,65.00,1346.19,1602.37,-256.18
125,717,1.00,65.00,1345.70,1602.40,-256.70
126,721,1.00,65.00,1346.29,1602.43,-256.14
127,726,1.00,65.00,1346.76,1601.47,-254.72
128,731,1.00,65.00,1346.15,1601.69,-255.53
129,740,1.00,65.00,1345.67,1600.88,-255.21
130,743,1.00,65.00,1346.27,1601.21,-254.95
131,748,1.00,65.00,1343.81,1600.50,-256.69
132,753,1.00,65.00,1343.80,1600.91,-257.11
133,759,1.00,65.00,1344.76,1600.26,-255.49
134,764,1.00,65.00,1344.56,1599.74,-255.18
135,768,1.00,65.00,1345.38,1600.30,-254.92
136,773,1.00,65.00,1346.03,1600.75,-254.72
137,778,1.00,65.00,1346.55,1600.13,-253.58
138,783,1.00,65.00,1346.97,1601.59,-254.62
139,788,1.00,65.00,1342.42,1600.80,-258.39
140,793,1.00,65.00,1342.68,1600.17,-257.49
141,801,1.00,65.00,1343.87,1599.67,-255.80
142,806,1.00,65.00,1343.85,1599.27,-255.42
143,811,1.00,65.00,1344.81,1598.94,-254.14
144,815,1.00,65.00,1346.55,1598.69,-252.14
145,820,1.00,65.00,1345.99,1598.48,-252.49
146,825,1.00,65.00,1346.52,1598.32,-251.80
147,830,1.00,65.00,1346.94,1599.16,-252.22
148,835,1.00,65.00,1346.30,1599.84,-253.53
149,840,1.00,65.00,1345.79,1600.38,-254.59
150,846,1.00,65.00,1346.36,1600.81,-254.45
151,850,1.00,65.00,1345.84,1601.16,-255.32
152,855,1.00,65.00,1346.40,1601.43,-255.04
153,862,1.00,65.00,1346.84,1601.65,-254.81
154,867,1.00,65.00,1347.20,1601.83,-254.63
155,872,1.00,65.00,1346.51,1602.95,-256.44
156,877,1.00,65.00,1346.94,1602.87,-255.93
157,882,1.00,65.00,1347.28,1602.80,-255.53
158,887,1.00,65.00,1346.57,1602.75,-256.18
159,892,1.00,65.00,1346.98,1602.71,-255.72
160,897,1.00,65.00,1346.34,1602.67,-256.34
161,902,1.00,65.00,1350.70,1602.65,-251.94
162,907,1.00,65.00,1350.29,1602.63,-252.34
163,912,1.00,65.00,1349.96,1602.61,-252.65
164,919,1.00,65.00,1349.69,1602.59,-252.90
165,924,1.00,65.00,1349.48,1602.58,-253.10
166,930,1.00,65.00,1348.33,1602.57,-254.24
167,935,1.00,65.00,1348.39,1602.57,-254.17
168,940,1.00,65.00,1348.44,1602.56,-254.12
169,944,1.00,65.00,1348.48,1603.53,-255.05
170,949,1.00,65.00,1347.53,1603.33,-255.80
171,954,1.00,65.00,1346.78,1603.18,-256.40
172,959,1.00,65.00,1346.17,1602.07,-255.90
173,964,1.00,65.00,1346.66,1601.19,-254.52
174,969,1.00,65.00,1347.06,1601.46,-254.40
175,975,1.00,65.00,1347.37,1600.70,-253.33
176,982,1.00,65.00,1348.60,1600.09,-251.49
177,986,1.00,65.00,1347.63,1600.58,-252.95
178,992,1.00,65.00,1342.95,1600.00,-257.05
179,996,1.00,65.00,1343.11,1599.53,-256.42
180,1001,1.00,65.00,1344.21,1598.18,-253.96
181,1006,1.00,65.00,1345.10,1598.07,-252.98
182,1011,1.00,65.00,1344.83,1597.99,-253.16
183,1016,1.00,65.00,1342.66,1597.92,-255.26
184,1021,1.00,65.00,1342.88,1597.87,-254.99
185,1026,1.00,65.00,1343.05,1597.83,-254.77
186,1031,1.00,65.00,1343.19,1597.79,-254.60
187,1036,1.00,65.00,1343.30,1597.77,-254.46
188,1044,1.00,65.00,1343.39,1597.74,-254.35
189,1048,1.00,65.00,1345.42,1597.73,-252.31
190,1053,1.00,65.00,1345.08,1597.71,-252.63
191,1059,1.00,65.00,1344.82,1597.70,-252.88
192,1064,1.00,65.00,1345.58,1598.67,-253.09
193,1069,1.00,65.00,1345.21,1599.44,-254.23
194,1074,1.00,65.00,1344.92,1600.06,-255.14
195,1078,1.00,65.00,1344.69,1599.58,-254.89
196,1083,1.00,65.00,1347.43,1600.17,-252.74
197,1088,1.00,65.00,1346.69,1600.65,-253.95
198,1093,1.00,65.00,1346.10,1601.02,-254.92
199,1102,1.00,65.00,1346.61,1601.33,-254.72
200,1106,1.00,65.00,1347.02,1600.59,-253.58
201,1111,1.00,65.00,1346.36,1600.98,-254.62
202,1116,1.00,65.00,1345.84,1601.29,-255.45
203,1121,1.00,65.00,1346.40,1600.57,-254.17
204,1126,1.00,65.00,1345.87,1599.98,-254.12
205,1130,1.00,65.00,1345.44,1600.50,-255.05
206,1135,1.00,65.00,1346.08,1600.90,-254.82
207,1140,1.00,65.00,1346.59,1601.23,-254.64
208,1146,1.00,65.00,1346.02,1601.49,-255.47
209,1151,1.00,65.00,1345.57,1601.70,-256.13
210,1158,1.00,65.00,1346.18,1600.89,-254.71
211,1163,1.00,65.00,1346.67,1601.22,-254.55
212,1168,1.00,65.00,1346.09,1601.49,-255.40
213,1173,1.00,65.00,1345.62,1601.70,-256.08
214,1178,1.00,65.00,1345.25,1600.89,-255.64
215,1183,1.00,65.00,1344.95,1601.22,-256.27
216,1188,1.00,65.00,1344.71,1600.51,-255.80
217,1193,1.00,65.00,1345.49,1600.91,-255.42
218,1198,1.00,65.00,1345.14,1600.26,-255.12
219,1203,1.00,65.00,1344.87,1599.74,-254.88
220,1208,1.00,65.00,1342.69,1599.32,-256.63
221,1213,1.00,65.00,1343.88,1600.94,-257.07
222,1220,1.00,65.00,1343.85,1600.29,-256.43
223,1225,1.00,65.00,1343.83,1599.76,-255.93
224,1230,1.00,65.00,1344.79,1599.34,-254.55
225,1235,1.00,65.00,1344.58,1599.00,-254.42
226,1240,1.00,65.00,1345.39,1598.73,-253.34
227,1245,1.00,65.00,1345.06,1598.52,-253.45
228,1250,1.00,65.00,1344.80,1599.32,-254.52
229,1255,1.00,65.00,1344.59,1598.99,-254.40
230,1259,1.00,65.00,1344.42,1598.72,-254.30
231,1265,1.00,65.00,1344.29,1598.51,-254.22
232,1269,1.00,65.00,1344.18,1597.36,-253.18
233,1277,1.00,65.00,1345.07,1597.42,-252.35
234,1282,1.00,65.00,1345.78,1597.47,-251.68
235,1287,1.00,65.00,1345.38,1597.51,-252.13
236,1292,1.00,65.00,1345.05,1597.54,-252.48
237,1297,1.00,65.00,1344.79,1597.56,-252.77
238,1302,1.00,65.00,1347.51,1597.58,-250.07
239,1306,1.00,65.00,1346.76,1597.59,-250.83
240,1311,1.00,65.00,1346.16,1597.61,-251.45
241,1317,1.00,65.00,1344.70,1598.59,-253.89
242,1322,1.00,65.00,1344.51,1599.38,-254.87
243,1327,1.00,65.00,1344.36,1600.01,-255.66
244,1334,1.00,65.00,1345.21,1600.52,-255.31
245,1339,1.00,65.00,1350.78,1600.92,-250.14
246,1344,1.00,65.00,1350.35,1601.25,-250.90
247,1349,1.00,65.00,1350.98,1602.48,-251.50
248,1354,1.00,65.00,1350.51,1602.49,-251.98
249,1360,1.00,65.00,1350.14,1602.50,-252.36
250,1364,1.00,65.00,1350.81,1602.51,-251.70
251,1369,1.00,65.00,1351.35,1602.52,-251.16
252,1374,1.00,65.00,1350.81,1602.52,-251.71
253,1379,1.00,65.00,1351.35,1602.52,-251.17
254,1384,1.00,65.00,1350.81,1602.53,-251.72
255,1389,1.00,65.00,1350.37,1602.53,-252.16
256,1396,1.00,65.00,1350.02,1602.53,-252.51
257,1402,1.00,65.00,1350.72,1602.53,-251.81
258,1407,1.00,65.00,1351.28,1602.53,-251.25
259,1412,1.00,65.00,1351.73,1602.54,-250.81
260,1416,1.00,65.00,1352.09,1602.54,-250.45
261,1421,1.00,65.00,1351.40,1602.54,-251.14
262,1426,1.00,65.00,1351.82,1602.54,-250.72
263,1431,1.00,65.00,1351.18,1602.54,-251.36
264,1436,1.00,65.00,1351.65,1601.56,-249.91
265,1442,1.00,65.00,1352.02,1601.76,-249.73
266,1447,1.00,65.00,1351.34,1601.91,-250.57
267,1454,1.00,65.00,1350.80,1602.04,-251.24
268,1459,1.00,65.00,1350.37,1601.16,-250.79
269,1464,1.00,65.00,1350.02,1601.44,-251.42
270,1468,1.00,65.00,1348.77,1601.66,-252.89
271,1473,1.00,65.00,1348.74,1601.83,-253.09
272,1478,1.00,65.00,1347.74,1601.97,-254.23
273,1484,1.00,65.00,1347.92,1602.09,-254.17
274,1489,1.00,65.00,1348.06,1602.18,-254.12
275,1494,1.00,65.00,1348.18,1601.27,-253.10
276,1498,1.00,65.00,1347.29,1600.55,-253.26
277,1503,1.00,65.00,1347.56,1599.97,-252.41
278,1508,1.00,65.00,1346.80,1600.49,-253.69
279,1515,1.00,65.00,1346.19,1600.90,-254.71
280,1520,1.00,65.00,1345.70,1600.25,-254.55
281,1525,1.00,65.00,1346.29,1600.71,-254.42
282,1531,1.00,65.00,1345.78,1601.07,-255.29
283,1536,1.00,65.00,1345.37,1601.37,-255.99
284,1572,1.00,65.00,1345.05,1601.60,-256.55
285,1577,1.00,65.00,1344.79,1601.79,-257.00
286,1582,1.00,65.00,1344.58,1601.94,-257.36
287,1586,1.00,65.00,1344.42,1602.06,-257.64
288,1591,1.00,65.00,1344.28,1602.15,-257.87
289,1596,1.00,65.00,1344.18,1602.23,-258.06
290,1604,1.00,65.00,1344.09,1602.29,-258.20
291,1608,1.00,65.00,1345.00,1602.34,-257.34
292,1614,1.00,65.00,1344.75,1602.38,-257.63
293,1619,1.00,65.00,1344.55,1600.46,-255.91
294,1624,1.00,65.00,1345.37,1598.92,-253.56
295,1629,1.00,65.00,1345.04,1599.65,-254.60
296,1634,1.00,65.00,1344.78,1600.22,-255.44
297,1638,1.00,65.00,1344.58,1600.69,-256.11
298,1644,1.00,65.00,1344.41,1601.06,-256.65
299,1648,1.00,65.00,1344.28,1601.35,-257.07
300,1653,1.00,65.00,1344.17,1600.61,-256.44
301,1661,1.00,65.00,1346.04,1601.00,-254.96
302,1666,1.00,65.00,1345.58,1601.31,-255.72
303,1671,1.00,65.00,1345.22,1601.55,-256.34
304,1676,1.00,65.00,1344.92,1601.75,-256.83
305,1681,1.00,65.00,1345.67,1601.91,-256.24
306,1685,1.00,65.00,1345.28,1602.03,-256.75
307,1691,1.00,65.00,1344.98,1602.14,-257.16
308,1695,1.00,65.00,1349.61,1601.24,-251.63
309,1701,1.00,65.00,1348.44,1601.50,-253.06
310,1706,1.00,65.00,1347.50,1601.71,-254.20
311,1711,1.00,65.00,1346.75,1601.87,-255.12
312,1716,1.00,65.00,1346.15,1602.01,-255.86
313,1723,1.00,65.00,1345.67,1602.11,-256.44
314,1728,1.00,65.00,1345.29,1602.20,-256.91
315,1733,1.00,65.00,1344.98,1602.27,-257.29
316,1738,1.00,65.00,1344.73,1602.32,-257.59
317,1743,1.00,65.00,1344.54,1602.36,-257.83
318,1748,1.00,65.00,1344.38,1604.35,-259.97
319,1753,1.00,65.00,1344.25,1602.04,-257.78
320,1758,1.00,65.00,1344.15,1602.14,-257.98
321,1763,1.00,65.00,1344.07,1602.22,-258.15
322,1767,1.00,65.00,1344.01,1602.28,-258.27
323,1773,1.00,65.00,1343.96,1602.33,-258.38
324,1780,1.00,65.00,1343.92,1602.37,-258.46
325,1786,1.00,65.00,1343.88,1602.41,-258.53
326,1791,1.00,65.00,1343.86,1602.43,-258.58
327,1795,1.00,65.00,1343.83,1602.45,-258.62
328,1800,1.00,65.00,1342.84,1602.47,-259.63
329,1805,1.00,65.00,1343.02,1602.49,-259.46
330,1810,1.00,65.00,1343.17,1602.50,-259.33
331,1814,1.00,65.00,1343.28,1602.50,-259.22
332,1819,1.00,65.00,1343.38,1602.51,-259.13
333,1825,1.00,65.00,1344.43,1602.52,-258.09
334,1830,1.00,65.00,1345.27,1602.52,-257.25
335,1838,1.00,65.00,1346.92,1602.53,-255.61
336,1842,1.00,65.00,1347.26,1602.53,-255.27
337,1847,1.00,65.00,1347.54,1601.55,-254.02
338,1852,1.00,65.00,1346.78,1601.75,-254.97
339,1857,1.00,65.00,1347.15,1601.91,-254.76
340,1862,1.00,65.00,1347.45,1602.03,-254.59
341,1866,1.00,65.00,1347.68,1602.14,-254.45
342,1872,1.00,65.00,1347.87,1602.22,-254.34
343,1877,1.00,65.00,1348.03,1602.28,-254.26
344,1882,1.00,65.00,1348.15,1602.33,-254.19
345,1887,1.00,65.00,1348.24,1602.37,-254.13
346,1892,1.00,65.00,1348.32,1602.41,-254.09
347,1899,1.00,65.00,1348.38,1602.43,-254.05
348,1904,1.00,65.00,1349.41,1602.45,-253.04
349,1909,1.00,65.00,1349.25,1601.49,-252.24
350,1914,1.00,65.00,1349.13,1601.70,-252.57
351,1920,1.00,65.00,1351.96,1601.87,-249.91
352,1924,1.00,65.00,1351.30,1602.98,-251.69
353,1929,1.00,65.00,1350.76,1602.89,-252.13
354,1934,1.00,65.00,1349.36,1602.82,-253.46
355,1939,1.00,65.00,1349.21,1601.79,-252.57
356,1944,1.00,65.00,1348.12,1601.94,-253.82
357,1948,1.00,65.00,1347.25,1602.06,-254.81
358,1957,1.00,65.00,1346.55,1601.18,-254.63
359,1961,1.00,65.00,1345.99,1600.47,-254.49
360,1966,1.00,65.00,1345.54,1599.91,-254.37
361,1971,1.00,65.00,1345.18,1600.44,-255.25
362,1976,1.00,65.00,1344.90,1599.88,-254.98
363,1981,1.00,65.00,1345.64,1596.51,-250.86
364,1986,1.00,65.00,1345.26,1592.83,-247.56
365,1991,1.00,65.00,1344.96,1594.77,-249.81
366,1996,1.00,65.00,1344.72,1595.35,-250.63
367,2001,1.00,65.00,1345.50,1596.79,-251.28
368,2006,1.00,65.00,1345.15,1597.94,-252.79
369,2011,1.00,65.00,1344.87,1598.86,-253.99
370,2018,1.00,65.00,1347.58,1599.59,-252.02
371,2023,1.00,65.00,1347.79,1599.21,-251.42
372,2028,1.00,65.00,1346.98,1599.87,-252.89
373,2033,1.00,65.00,1346.33,1599.43,-253.10
374,2039,1.00,65.00,1345.82,1599.07,-253.26
375,2044,1.00,65.00,1344.43,1599.77,-255.34
376,2049,1.00,65.00,1342.34,1600.32,-257.98
377,2053,1.00,65.00,1342.62,1600.77,-258.14
378,2058,1.00,65.00,1342.85,1600.14,-257.30
379,2063,1.00,65.00,1344.00,1600.62,-256.62
380,2068,1.00,65.00,1343.95,1600.03,-256.08
381,2075,1.00,65.00,1343.91,1596.63,-252.71
382,2081,1.00,65.00,1344.86,1597.81,-252.95
383,2086,1.00,65.00,1344.64,1598.75,-254.12
384,2091,1.00,65.00,1344.46,1599.51,-255.05
385,2096,1.00,65.00,1344.32,1600.12,-255.80
386,2100,1.00,65.00,1344.20,1600.60,-256.40
387,2105,1.00,65.00,1344.11,1600.99,-256.88
388,2110,1.00,65.00,1344.04,1600.32,-256.28
389,2115,1.00,65.00,1343.98,1599.79,-255.81
390,2120,1.00,65.00,1344.91,1599.36,-254.45
391,2125,1.00,65.00,1344.68,1599.02,-254.34
392,2133,1.00,65.00,1344.49,1599.72,-255.23
393,2138,1.00,65.00,1346.30,1599.31,-253.01
394,2143,1.00,65.00,1346.77,1599.96,-253.19
395,2148,1.00,65.00,1346.16,1599.50,-253.33
396,2152,1.00,65.00,1345.68,1600.11,-254.43
397,2157,1.00,65.00,1344.32,1599.62,-255.30
398,2162,1.00,65.00,1345.18,1599.22,-254.04
399,2168,1.00,65.00,1344.89,1598.91,-254.02
400,2173,1.00,65.00,1344.67,1598.66,-253.99
401,2178,1.00,65.00,1344.48,1598.46,-253.98
402,2182,1.00,65.00,1344.34,1598.30,-253.96
403,2187,1.00,65.00,1344.22,1599.15,-254.93
404,2195,1.00,65.00,1344.13,1598.85,-254.72
405,2199,1.00,65.00,1344.05,1598.61,-254.56
406,2204,1.00,65.00,1343.99,1598.42,-254.43
407,2210,1.00,65.00,1343.94,1598.27,-254.32
408,2215,1.00,65.00,1343.90,1599.12,-255.22
409,2220,1.00,65.00,1343.87,1598.83,-254.96
410,2224,1.00,65.00,1343.85,1598.59,-254.75
411,2229,1.00,65.00,1343.83,1598.41,-254.58
412,2234,1.00,65.00,1343.81,1598.26,-254.44
413,2239,1.00,65.00,1343.80,1598.14,-254.34
414,2244,1.00,65.00,1344.77,1598.04,-253.27
415,2252,1.00,65.00,1345.54,1597.96,-252.42
416,2257,1.00,65.00,1345.18,1596.93,-251.74
417,2262,1.00,65.00,1345.87,1597.07,-251.20
418,2267,1.00,65.00,1345.45,1597.19,-251.74
419,2271,1.00,65.00,1345.11,1597.28,-252.17
420,2277,1.00,65.00,1344.84,1596.38,-251.54
421,2281,1.00,65.00,1344.62,1596.64,-252.02
422,2286,1.00,65.00,1346.40,1597.82,-251.42
423,2291,1.00,65.00,1343.92,1598.76,-254.84
424,2297,1.00,65.00,1343.88,1599.52,-255.63
425,2301,1.00,65.00,1344.83,1600.12,-255.29
426,2310,1.00,65.00,1346.57,1600.60,-254.04
427,2314,1.00,65.00,1346.98,1600.99,-254.01
428,2318,1.00,65.00,1347.31,1601.30,-253.99
429,2323,1.00,65.00,1347.58,1601.55,-253.97
430,2328,1.00,65.00,1347.79,1601.75,-253.96
431,2333,1.00,65.00,1349.91,1601.91,-252.00
432,2339,1.00,65.00,1349.65,1602.03,-252.38
433,2344,1.00,65.00,1349.45,1602.13,-252.68
434,2349,1.00,65.00,1349.29,1602.21,-252.93
435,2353,1.00,65.00,1348.18,1601.30,-253.12
436,2358,1.00,65.00,1348.27,1601.55,-253.28
437,2363,1.00,65.00,1348.34,1601.75,-253.41
438,2371,1.00,65.00,1348.40,1601.91,-253.51
439,2375,1.00,65.00,1348.45,1602.03,-253.59
440,2381,1.00,65.00,1348.48,1602.13,-253.65
441,2386,1.00,65.00,1348.51,1606.12,-257.61
442,2391,1.00,65.00,1348.54,1605.41,-256.87
443,2396,1.00,65.00,1348.56,1604.83,-256.28
444,2401,1.00,65.00,1349.55,1604.37,-254.82
445,2406,1.00,65.00,1347.41,1604.01,-256.59
446,2410,1.00,65.00,1342.77,1603.71,-260.94
447,2415,1.00,65.00,1343.95,1603.48,-259.53
448,2420,1.00,65.00,1344.88,1602.31,-257.43
449,2428,1.00,65.00,1345.63,1601.38,-255.75
450,2433,1.00,65.00,1345.26,1601.61,-256.36
451,2438,1.00,65.00,1345.93,1601.80,-255.87
452,2443,1.00,65.00,1346.47,1601.95,-255.47
453,2448,1.00,65.00,1348.86,1600.11,-251.25
454,2453,1.00,65.00,1348.81,1600.60,-251.79
455,2457,1.00,65.00,1347.80,1600.99,-253.19
456,2462,1.00,65.00,1347.97,1600.32,-252.35
457,2468,1.00,65.00,1348.10,1600.76,-252.66
458,2473,1.00,65.00,1347.23,1601.12,-253.89
